"time","a","b","der(a)","der(b)","aRel"
0,50,0,-0,0.12,1
2,49.91658938292053,0.2378503963153476,-0.08310876397206686,0.1179718206285803,0.9983317876584107
4,49.66889283883855,0.4723702355240009,-0.1642347462594897,0.1166669477216381,0.993377856776771
6,49.26116906678954,0.7049771070952303,-0.2430959752258404,0.1160533188485317,0.9852233813357909
8,48.69821272906139,0.9370204706898136,-0.3194185554919644,0.1160973018310441,0.9739642545812278
10,47.98537234001609,1.169780991895452,-0.3929266351666364,0.1167636262529779,0.9597074468003218
12,47.12857191896023,1.404465566928907,-0.4633331953509859,0.118015342271078,0.9425714383792047
14,46.13431935456347,1.64220616532061,-0.5303344457385387,0.1198137970576273,0.9226863870912695
16,45.00974837582326,1.88405585020279,-0.5936061582053773,0.1221184983195145,0.9001949675164651
18,43.76265034901657,2.130985805692025,-0.6528031069925223,0.1248870104772102,0.8752530069803315
20,42.40153056257437,2.38387990708319,-0.7075610971638637,0.1280747725663558,0.8480306112514873
22,40.93564837270041,2.643529704605191,-0.7575022171535466,0.1316349797886064,0.8187129674540081
24,39.37500995570393,2.910632347537642,-0.8022432436318201,0.1355186347106671,0.7875001991140786
26,37.73040272894896,3.18578254730564,-0.8414060096168908,0.139674483065358,0.7546080545789792
28,36.01333727269812,3.469472618369795,-0.8746310129461973,0.14404925727097,0.7202667454539623
30,34.23602486709905,3.762085270065076,-0.9015919140066648,0.1485878428575332,0.6847204973419811
32,32.41127453713377,4.063892323144805,-0.9220115084235764,0.1532337237125901,0.6482254907426754
34,30.55239917807064,4.375050961888897,-0.9356781238842207,0.1579294138332143,0.6110479835614129
36,28.67308046756342,4.695603238570564,-0.9424618665229965,0.162617029650528,0.5734616093512684
38,26.78714163883329,5.025475362913733,-0.942326842441861,0.1672392514877629,0.5357428327766658
40,24.90834825614568,5.364480412455602,-0.9353424242870131,0.1717401331996322,0.4981669651229135
42,23.05022843833436,5.712320738854018,-0.9216920856053404,0.1760658331704555,0.4610045687666873
44,21.22583150339593,6.068594198000235,-0.9016767053646739,0.1801655657057347,0.4245166300679186
46,19.44748796439363,6.432801935079092,-0.8757128674684508,0.1839925311987559,0.3889497592878726
48,17.72659799028202,6.804355389662625,-0.8443265080289069,0.1875047345441893,0.3545319598056404
50,16.07339281978257,7.182588224543431,-0.8081399339708187,0.1906658679114789,0.3214678563956515
52,14.49677718516709,7.566766598038237,-0.7678561056874755,0.1934458698419159,0.2899355437033417
54,13.00419132741387,7.956103024988724,-0.7242388017029872,0.1958213661749745,0.2600838265482773
56,11.60150893470871,8.349771202662074,-0.6780896164732031,0.1977759504476027,0.2320301786941743
58,10.29297897318966,8.746919520372092,-0.630223010923605,0.1993002931088825,0.2058595794637932
60,9.081226865598133,9.14668399107909,-0.5814417867364665,0.2003920072536969,0.1816245373119627
62,7.967306670562023,9.548202093455883,-0.5325141796174573,0.2010552910490807,0.1593461334112405
64,6.950789402647761,9.950626228726398,-0.4841529513823821,0.2013004222216155,0.1390157880529552
66,6.029889165746305,10.35313516636069,-0.4369978029980175,0.2011431138402587,0.1205977833149261
68,5.201626460100404,10.75494363686291,-0.3916023957887619,0.2006037324989492,0.1040325292020081
70,4.462002942301808,11.15531117322531,-0.3484252189405649,0.1997064759100793,0.08924005884603617
72,3.806207149405337,11.55354850560353,-0.3078263924612066,0.1984784449164623,0.07612414298810674
74,3.228804033443855,11.94902293470791,-0.2700673741310862,0.1969487937124567,0.06457608066887709
76,2.723931439723689,12.3411615370881,-0.2353153453950811,0.1951478725822795,0.05447862879447379
78,2.285482301183645,12.72945282559888,-0.2036505739566087,0.19310644607904,0.0457096460236729
80,1.907267036909963,13.11344667484962,-0.1750759120825207,0.190855011696482,0.03814534073819927
82,1.583158369350614,13.49275260472578,-0.1495281494822424,0.1884232088014697,0.03166316738701229
84,1.307210465734322,13.86703816502649,-0.1268899619264194,0.1858393343936509,0.02614420931468645
86,1.073759297675818,14.23602616646048,-0.1070024582073522,0.1831299492851568,0.02147518595351637
88,0.877489608824509,14.59949062473326,-0.08967630922133991,0.1803196373956045,0.01754979217649018
90,0.7134842755052406,14.95725245026719,-0.07470235099619509,0.1774308415402061,0.01426968551010481
92,0.5772563602289521,15.30917520656704,-0.06186123130495144,0.174483771221368,0.01154512720457904
94,0.4647625541477486,15.65516069578638,-0.05093152729396988,0.1714963903147157,0.009295251082954974
96,0.3723988647035384,15.99514445892573,-0.04169601546091124,0.1684844801789879,0.007447977294070769
98,0.2969866177538367,16.32909146931579,-0.03394665152525587,0.1654617415122761,0.005939732355076733
100,0.2357508750871277,16.65699211917615,-0.02748830327890617,0.1624399251328726,0.004715017501742555
102,0.1862921061087618,16.97885849673597,-0.02214119116075714,0.1594289881869835,0.003725842122175237
104,0.1465538206458116,17.29472095485467,-0.01774225203055991,0.156437264404741,0.002931076412916232
106,0.1147883619407328,17.60462502771831,-0.01414564248658829,0.1534716386026658,0.002295767238814656
108,0.08952268852824588,17.90862876805477,-0.01122260016619386,0.1505377170276337,0.001790453770564918
110,0.06952489415872523,18.20680034713871,-0.008860781069727026,0.1476399919731463,0.001390497883174505
112,0.05377188966295253,18.4992156871244,-0.006963164493454497,0.1447820011921716,0.001075437793259051
114,0.04142041007583661,18.78595707035917,-0.005446854318649373,0.1419664635740898,0.0008284082015167321
116,0.03177937199279685,19.06711143067462,-0.004241585788884623,0.1391954123308841,0.0006355874398559369
118,0.02428697035238175,19.34276933602547,-0.003288440857779066,0.1364703013642654,0.0004857394070476351
120,0.01848990605016832,19.61302382341288,-0.002538500774982321,0.1337921041604605,0.0003697981210033665
122,0.01402441298808211,19.87796942283659,-0.001951437967852299,0.1311614032370842,0.0002804882597616422
124,0.01059921729630669,20.13770142798312,-0.00149410711298337,0.1285784690075243,0.0002119843459261337
126,0.007981768537264311,20.39231534029246,-0.001139367186895831,0.1260433231692189,0.0001596353707452862
128,0.005988956149790211,20.64190653503207,-0.0008653643116046254,0.1235557810338502,0.0001197791229958042
130,0.004478015518479898,20.8865699429317,-0.0006547126903258478,0.1211154929055054,8.956031036959796e-05
132,0.003337326000914938,21.12639966814843,-0.0004935397804276273,0.1187219865493118,6.674652001829875e-05
134,0.002479361614350438,21.36148873503005,-0.0003707399863650896,0.1163746993309192,4.958723228700875e-05
136,0.001836062808958702,21.59192892722073,-0.0002775089637386468,0.1140729992639951,3.672125617917405e-05
138,0.001355091440995663,21.81781071452242,-0.0002069558999235897,0.1118162014707236,2.710182881991326e-05
140,0.0009972615068272474,22.03922321213751,-0.0001538520826488681,0.1096035793802963,1.994523013654495e-05
142,0.0007314402324794701,22.25625400140516,-0.0001139538372063695,0.107434387936972,1.46288046495894e-05
144,0.0005347540059940153,22.46898919954907,-8.41076738956659e-05,0.1053078620376841,1.069508011988031e-05
146,0.0003898823844173163,22.67751337138313,-6.189094090123299e-05,0.1032232287801541,7.797647688346325e-06
148,0.0002835194482882279,22.88190953230481,-4.541226456466141e-05,0.1011797138952691,5.670388965764557e-06
150,0.0002057884535964659,23.08225913999113,-3.325043689752167e-05,0.09917654428858358,4.115769071929319e-06
152,0.0001489902135225337,23.27864211441612,-2.427802901399053e-05,0.097212953096942,2.979804270450675e-06
154,0.0001075667644973338,23.47113684502485,-1.767299974645438e-05,0.09528817976934062,2.151335289946677e-06
156,7.74530190362095e-05,23.65982021546543,-1.282767153879217e-05,0.0934014725426657,1.54906038072419e-06
158,5.550329680176905e-05,23.84476762114849,-9.264242501120721e-06,0.09155209067466855,1.110065936035381e-06
160,3.984702690093147e-05,24.02605297300506,-6.701567453969759e-06,0.08973930291243648,7.969405380186294e-07
162,2.825472776050388e-05,24.20374876080183,-4.787092324140622e-06,0.08796239372212514,5.650945552100777e-07
164,1.998471422264862e-05,24.37792601691607,-3.41030119352257e-06,0.08622065589503955,3.996942844529725e-07
166,1.404724962956075e-05,24.54865439620692,-2.413887534613327e-06,0.08451339703948235,2.809449925912149e-07
168,9.879034000044035e-06,24.71600217025868,-1.709191580496034e-06,0.08283993680547039,1.975806800008807e-07
170,6.89492138363281e-06,24.88003628958458,-1.200821259670319e-06,0.08119960814548441,1.378984276726562e-07
172,4.675688063942494e-06,25.04082235787535,-8.195815194701547e-07,0.07959175678335667,9.351376127884988e-08
174,3.123097107893658e-06,25.19842467838345,-5.508798906557487e-07,0.07801574009915763,6.246194215787316e-08
176,2.108598719906856e-06,25.35290624435548,-3.742137395693657e-07,0.07647092870033056,4.217197439813713e-08
178,1.412662977456288e-06,25.50432885968262,-2.52203148014605e-07,0.07495670546998934,2.825325954912575e-08
180,9.921474564169871e-07,25.65275305135255,-1.781591958299478e-07,0.07347246531945517,1.984294912833974e-08
182,7.07766020887576e-07,25.79823822876691,-1.278138149195887e-07,0.07201761473971363,1.415532041775152e-08
184,5.162099410487845e-07,25.94084258400473,-9.373644574731418e-08,0.07059157199187088,1.032419882097569e-08
186,3.708675872897958e-07,26.08062318612049,-6.77072045723557e-08,0.06919376658115128,7.417351745795917e-09
188,2.440052186052056e-07,26.21763603532417,-4.478068008477693e-08,0.06782363862193647,4.880104372104112e-09
190,1.272880045739409e-07,26.35193599266519,-2.347999744416596e-08,0.06648063953873845,2.545760091478818e-09
192,3.262244309841685e-08,26.48357677878333,-6.04771283555889e-09,0.06516423207515248,6.52448861968337e-10
194,-2.561939914497357e-08,26.61261103405883,4.772593730600368e-09,0.06387388976701314,-5.123879828994715e-10
196,-1.147878047302593e-07,26.73909047864502,2.148525047569207e-08,0.06260909569565865,-2.295756094605185e-09
198,-1.878430705067508e-07,26.86306551960412,3.532228497298525e-08,0.06136934559289969,-3.756861410135017e-09
200,-2.257754585795933e-07,26.9845855362116,4.264720021812904e-08,0.06015414558614091,-4.515509171591865e-09
202,-2.420024802467646e-07,27.1036993332719,4.591413723760066e-08,0.05896300768369139,-4.840049604935292e-09
204,-2.62293364917039e-07,27.22045487666824,4.997821292921615e-08,0.05779545233494976,-5.245867298340779e-09
206,-2.584127497942623e-07,27.33489841926679,4.944580386108696e-08,0.05665101689266572,-5.168254995885247e-09
208,-2.223253261125166e-07,27.44707547839675,4.271526004598591e-08,0.05552924614979882,-4.446506522250332e-09
210,-1.865656389737432e-07,27.55703162210211,3.598836648957988e-08,0.05442968456255465,-3.731312779474864e-09
212,-1.501139128310879e-07,27.6648105834562,2.907011075089451e-08,0.05335189479591645,-3.002278256621758e-09
214,-1.138199118565623e-07,27.77045516172874,2.212581531107206e-08,0.05229544886075616,-2.276398237131246e-09
216,-8.246724793035285e-08,27.8740074860737,1.609084880316586e-08,0.05125992548562547,-1.649344958607057e-09
218,-4.833760306907266e-08,27.97550981735483,9.465883624443701e-09,0.05024490202946968,-9.667520613814531e-10
220,-2.069308157747127e-08,28.07500219048774,4.066708174308132e-09,0.04924997818203347,-4.138616315494254e-10
222,-3.22013212912975e-09,28.17252421821445,6.350347527563083e-10,0.04827475783138008,-6.440264258259499e-11
224,6.379390858774027e-09,28.2681151081317,-1.262333485809111e-09,0.04731884889188959,1.275878171754805e-10
226,1.393766523196013e-08,28.3618134729396,-2.767082230899902e-09,0.04638186521206583,2.787533046392027e-10
228,1.652986042005105e-08,28.45365637872434,-3.292344778662861e-09,0.04546343614333115,3.305972084010211e-10
230,1.569032404127085e-08,28.54368036831116,-3.135017160164844e-09,0.04456319625098909,3.13806480825417e-10
232,9.385846242652332e-09,28.63192182291932,-1.881143711030939e-09,0.04368078173138618,1.877169248530466e-10
234,-1.825017053122725e-09,28.71841598766725,3.668811924131552e-10,0.0428158401309926,-3.650034106245449e-11
236,-1.716507870921318e-08,28.80319734703705,3.46086404677224e-09,0.04196802660172283,-3.433015741842637e-10
238,-3.663332225727842e-08,28.88629978226673,7.407407901208901e-09,0.04113700233119266,-7.326664451455684e-10
240,-6.054814291283021e-08,28.96775649908421,1.227760702259432e-08,0.04032243526346013,-1.210962858256604e-09
242,-8.963822703911724e-08,29.0476000420858,1.822642757259771e-08,0.03952399995562261,-1.792764540782345e-09
244,-1.2513343161101e-07,29.12586230911467,2.551233369558507e-08,0.03874137743441369,-2.502668632220201e-09
246,-1.586650544009305e-07,29.20257471250482,3.24339967378477e-08,0.03797425354134504,-3.17330108801861e-09
248,-1.790941910012429e-07,29.27776809635995,3.670434734077709e-08,0.03722231978859614,-3.581883820024859e-09
250,-1.919755012626833e-07,29.35147247173299,3.944334548391154e-08,0.03648527608896718,-3.839510025253666e-09
252,-1.942510092646172e-07,29.42371739702327,4.000910760482052e-08,0.03576282684562154,-3.885020185292344e-09
254,-1.825104957635658e-07,29.49453187461722,3.768143144325478e-08,0.03505468202037187,-3.650209915271317e-09
256,-1.529798638085562e-07,29.56394436674428,3.165881728007791e-08,0.03436055697507268,-3.059597276171124e-09
258,-1.095930618377915e-07,29.63198255102823,2.273221787263838e-08,0.03368017495000852,-2.191861236755831e-09
260,-7.711093285510522e-08,29.69867291351892,1.603064661044063e-08,0.03301327118867681,-1.542218657102105e-09
262,-4.224114827408842e-08,29.76404266021306,8.800871374724473e-09,0.03235957357528219,-8.448229654817685e-10
264,-8.850105486689786e-09,29.82811795461723,1.847873932574517e-09,0.03171882049099811,-1.770021097337957e-10
266,1.80622516006635e-08,29.89092444926749,-3.779281785853654e-09,0.03109075543146356,3.612450320132699e-10
268,3.226167381210172e-08,29.95248729796594,-6.76422162547668e-09,0.0304751268848415,6.452334762420344e-10
270,2.840040123686923e-08,30.0128311585619,-5.966635130102982e-09,0.02987168829509929,5.680080247373846e-10
272,4.699832805471673e-08,30.07198001330774,-9.893329473442252e-09,0.02928019966952966,9.399665610943345e-10
274,6.137361303249622e-08,30.12995766192024,-1.294429053559731e-08,0.0287004231230284,1.227472260649925e-09
276,7.057778405957856e-08,30.18678733783169,-1.491361590727333e-08,0.02813212632525647,1.411555681191571e-09
278,7.376887937140304e-08,30.2424918290724,-1.561668312140639e-08,0.02757508139944675,1.475377587428061e-09
280,7.023862309551372e-08,30.29709348996279,-1.489618291371727e-08,0.02702906480536993,1.404772461910274e-09
282,5.943960079759592e-08,30.35061425280555,-1.262819876604011e-08,0.02649385722229819,1.188792015951918e-09
284,4.728955470858683e-08,30.40307498009385,-1.006423514306291e-08,0.02596925000044537,9.457910941717365e-10
286,3.3062859702528e-08,30.4544968562602,-7.048389298087275e-09,0.02545503129853399,6.612571940505599e-10
288,1.766125894828051e-08,30.50490053328744,-3.771284632569509e-09,0.02495099459294831,3.532251789656103e-10
290,3.297009859135418e-09,30.5543061785452,-7.051649409679401e-10,0.02445693820070061,6.594019718270836e-11
292,-7.24111499191184e-09,30.60273356645208,1.551185389750639e-09,0.02397266436589185,-1.448222998382368e-10
294,-1.054259135628243e-08,30.65020208827031,2.261927889228757e-09,0.02349797916157575,-2.108518271256486e-10
296,-1.661661847781191e-08,30.6967306380237,3.570531030697398e-09,0.0230326936895528,-3.323323695562382e-10
298,-2.663261027287855e-08,30.74233781764147,5.731240913820946e-09,0.0225766219354423,-5.32652205457571e-10
300,-3.447951715673384e-08,30.78704193264253,7.430656383651426e-09,0.02212958081838873,-6.895903431346769e-10
302,-3.952125346615881e-08,30.83086088936286,8.529319874518743e-09,0.02169139127236069,-7.904250693231762e-10
304,-4.116570220819252e-08,30.87381225211166,8.896595128414519e-09,0.02126187765177934,-8.233140441638503e-10
306,-3.887871224792012e-08,30.91591325244509,8.41379626656431e-09,0.02084086763883969,-7.775742449584024e-10
308,-3.397156177768552e-08,30.95718060065611,7.361646412667095e-09,0.02042819413611952,-6.794312355537104e-10
310,-2.85408931210627e-08,30.99763061483178,6.192900436688666e-09,0.0200236939715539,-5.708178624212541e-10
312,-2.166591808967608e-08,31.0372796557903,4.707158111241056e-09,0.01962720353309394,-4.333183617935215e-10
314,-1.426734631419041e-08,31.07614359602925,3.103618719558419e-09,0.01923856409963037,-2.853469262838083e-10
316,-7.565857613290745e-09,31.11423800247747,1.647841261309491e-09,0.01885762000700192,-1.513171522658149e-10
318,-3.107679978764317e-09,31.15157814447716,6.776639499455261e-10,0.01848421856828075,-6.215359957528633e-11
320,-5.661013179643414e-10,31.18817893983445,1.23589684419236e-10,0.01811821060403312,-1.132202635928683e-11
322,6.642052332145197e-09,31.22405484002525,-1.451742643884535e-09,0.01775945157185083,1.32841046642904e-10
324,1.313289033379289e-08,31.25922034491963,-2.873667388967881e-09,0.0174077964956455,2.626578066758579e-10
326,1.838577077739881e-08,31.29368954139279,-4.027510218809913e-09,0.01706310450885185,3.677154155479762e-10
328,2.184429879302626e-08,31.32747624701321,-4.790287260998327e-09,0.01672523743812188,4.368859758605253e-10
330,2.291925917332327e-08,31.36059401723083,-5.031331074771993e-09,0.01639405973143082,4.583851834664655e-10
332,2.112682288399578e-08,31.3930561401494,-4.642648758021907e-09,0.01606943850977338,4.225364576799155e-10
334,2.031962575241276e-08,31.42487525563866,-4.469791931575837e-09,0.01575124735827094,4.063925150482552e-10
336,1.836321705708226e-08,31.45606431032823,-4.043441756844671e-09,0.01543935681959213,3.672643411416451e-10
338,1.557073424275136e-08,31.48663579089718,-3.431890266688542e-09,0.01513364202563117,3.114146848550272e-10
340,1.240248631308083e-08,31.51660194267271,-2.736189569601704e-09,0.01483398052118245,2.480497262616165e-10
342,9.480330607305662e-09,31.54597477576815,-2.09346389142805e-09,0.0145402522025011,1.896066121461132e-10
344,7.602049576895621e-09,31.57476607122069,-1.68023055936611e-09,0.0142523392558645,1.520409915379124e-10
346,3.726981777720875e-09,31.60298717494025,-8.244863012578418e-10,0.0139701282349442,7.453963555441751e-11
348,-7.395977542407547e-10,31.63064943941816,1.637577010339918e-10,0.01369350560892474,-1.47919550848151e-11
350,-4.870136062560132e-09,31.65776396978479,1.07924332578486e-09,0.01342236032260674,-9.740272125120265e-11
352,-8.253148858694674e-09,31.68434162717056,1.830469115571424e-09,0.01315658376295764,-1.650629771738935e-10
354,-1.041895751464498e-08,31.71039306433233,2.312724666769799e-09,0.01289606940043636,-2.083791502928996e-10
356,-1.083775176333337e-08,31.73592873113603,2.407622822968242e-09,0.01264071273415829,-2.167550352666675e-10
358,-1.107304304470848e-08,31.76095872514842,2.461833241733446e-09,0.01239041279502262,-2.214608608941697e-10
360,-1.151165813979302e-08,31.78549303197017,2.561326107121697e-09,0.01214506972864726,-2.302331627958604e-10
362,-1.130166353118779e-08,31.80954153504023,2.516505148572572e-09,0.01190458469706468,-2.260332706237558e-10
364,-1.055510538069813e-08,31.83311386268564,2.352013099914866e-09,0.01166886141747508,-2.111021076139626e-10
366,-9.45518633680162e-09,31.85621945762526,2.108445436705246e-09,0.01143780546345924,-1.891037267360324e-10
368,-8.263701933092114e-09,31.8788675817788,1.844062217622331e-09,0.01121132421691962,-1.652740386618423e-10
370,-6.69882306585356e-09,31.90106724931547,1.495897235805421e-09,0.01098932753498033,-1.339764613170712e-10
372,-4.242148413153014e-09,31.92282726560974,9.479495971971488e-10,0.01077172736171966,-8.484296826306028e-11
374,-1.691779677847955e-09,31.94415640820373,3.782973224617692e-10,0.01055843592506822,-3.38355935569591e-11
376,7.035998852746591e-10,31.96506321811346,-1.57434303691433e-10,0.01034936781591028,1.407199770549318e-11
378,2.643457177745267e-09,31.98555607231573,-5.918671344847573e-10,0.01014443926574016,5.286914355490534e-11
