"time","A","D_IA","D_II","I","R","der(A)","der(D_IA)","der(D_II)","der(I)","der(R)","aux","aux_basal","kprime_IA","kprime_II"
0,10,10,10,10,1,0.9700000000374456,-0.03000000003744341,-0.03000000003744341,1.000000000000018,0.9020909090909092,7.488454301096681e-12,0.1111111111111111,10,10
1,10.40399539867383,10.53459601026162,10.32411662034406,10.18632613776947,1.92971636290814,0.3364380017473448,0.6007462240258338,0.4889250790391012,0.2570405920044364,0.9519105394485314,3.420315943114538e-05,0.1111111111111111,10,10
2,10.69312928560013,11.18124197745997,10.98867265207145,10.52442867582498,2.898343203540939,0.2420290080790544,0.6923478781317695,0.8431544819627823,0.4179733940859316,0.9825950479019757,0.0001368745503429469,0.1111111111111111,10,10
3,10.88978074671514,11.91756723774578,12.0161190670457,11.01878024896939,3.889430437410445,0.152736814689812,0.7788411413568022,1.214429187740548,0.5685003449122097,0.9968979131315234,0.0003080078469395175,0.1111111111111111,10,10
4,11.0024114249651,12.73511854492838,13.42239441739518,11.65624937066817,4.887117060164873,0.07481188626700927,0.8539755238233125,1.600265044090284,0.7035241260996495,0.9961439612433604,0.0005475924928630693,0.1111111111111111,10,10
5,11.04430485911845,13.62062073188741,15.22011312052664,12.41973500394105,5.877558167221665,0.0115567648264756,0.914448458400502,1.99652032113692,0.8202501041888686,0.9829111202529096,0.000855613709335401,0.1111111111111111,10,10
6,11.03064836771783,14.5588948266467,17.41723345520226,13.2903526044331,6.849812500004277,-0.03639231602930847,0.9596236864462041,2.39816982780394,0.9178180462835881,0.9602965370578134,0.001232052496068281,0.1111111111111111,10,10
7,10.97618858943691,15.53520251209779,20.01646439063915,14.24925492806559,7.796032709785806,-0.07040922076233816,0.9908750474577024,2.799818140153348,0.9971316645115302,0.9313145467683446,0.001676885632434955,0.1111111111111111,10,10
8,10.89378617408611,16.53669143506928,23.01537149566837,15.27889453406202,8.711180152354796,-0.09270822501928416,1.010416792191823,3.196709369775803,1.059731280284202,0.8985359553700976,0.00219008567890433,0.1111111111111111,10,10
9,10.79384809800634,17.55296289100268,26.40701469396739,16.3636975918892,9.592507117497643,-0.1057609162939957,1.020720483326952,3.584736924542947,1.10784568572487,0.8639583028149802,0.002771620978731848,0.1111111111111111,10,10
10,10.68434449224642,18.57605499581217,30.18080892940554,17.49030133858171,10.43898207471021,-0.1122376339482793,1.024456435484098,3.960554095121043,1.143659995523736,0.82902521171384,0.003421455659913253,0.1111111111111111,10,10
11,10.57107064600806,19.60018068249377,34.323393014202,18.6475112214071,11.25077262217463,-0.1136641610886054,1.023150407103109,4.322025605166357,1.169243521562613,0.794708644329587,0.004139549637397266,0.1111111111111111,10,10
12,10.45811989472727,20.62125481350479,38.81944739481708,19.82607864723348,12.02882102604171,-0.1117940184724973,1.018555894347798,4.667321331873476,1.186570495493584,0.761625628170588,0.004925858615557166,0.1111111111111111,10,10
13,10.34825036050593,21.63652743992174,43.65229629412558,21.01843978968353,12.77455690398842,-0.1076736894407387,1.011719356039432,4.99545400404453,1.197097344878208,0.7301316817021394,0.005780334090924821,0.1111111111111111,10,10
14,10.24324998521346,22.64421876836936,48.80441294847097,22.21843373042313,13.48967242459206,-0.1021271215435041,1.003464715282752,5.305777661158235,1.202061854660825,0.7004037449229584,0.00670292335518119,0.1111111111111111,10,10
15,10.14421435539155,23.64324133652962,54.25776639710956,23.42103998355728,14.17597222670587,-0.09581322831431013,0.9944508612385579,5.597552218936096,1.203152280146262,0.6725007605352299,0.007693569498409047,0.1111111111111111,10,10
16,10.05173747968545,24.63300923565476,59.99403588417783,24.62219323533192,14.83527606463179,-0.08902405263539589,0.9849698124893684,5.871796397115157,1.198912006917779,0.6464043666748694,0.008752211412601518,0.1111111111111111,10,10
17,9.966106106855845,25.61324379261138,65.9948288335773,25.81851835177018,15.46936280061415,-0.0822775360922262,0.9755394863938329,6.12683146468107,1.193009530351438,0.6220541728600082,0.009878783795433499,0.1111111111111111,10,10
18,9.887350538565668,26.58392275700067,72.24170416030609,27.00728002595465,16.07993498709247,-0.07530637607103539,0.9658925561843384,6.363814139141509,1.184154690507822,0.5993599853964098,0.01107321715428888,0.1111111111111111,10,10
19,9.815387213350569,27.5451377174134,78.7162974622406,28.18618884863603,16.66859895123957,-0.06860607851824257,0.9565245037259387,6.582534180207729,1.172942073914363,0.5782231412541086,0.01233543781054713,0.1111111111111111,10,10
20,9.750029052100068,28.49708375672292,85.40031067607215,29.35332733851433,17.23686181850668,-0.06212021388051972,0.9473788754540901,6.782871243711712,1.160255598925032,0.5585394093880576,0.01366536790412853,0.1111111111111111,10,10
21,9.691038624705566,29.44000628421376,92.2755501933548,30.5070813943801,17.78612467062658,-0.05587837004704426,0.9384852353202972,6.965029691110863,1.146160380128925,0.5402060686636544,0.01506292539829657,0.1111111111111111,10,10
22,9.638152745136761,30.37417644129323,99.32392419513184,31.64607190171597,18.31768830097921,-0.04989354377589927,0.9298565562166397,7.129184833729423,1.130725145510185,0.5231248507447875,0.01652802408471876,0.1111111111111111,10,10
23,9.591087478777899,31.29988609416402,106.5274327004245,32.76911571846642,18.83275785497269,-0.04373503729992699,0.9210621165811206,7.276127974080415,1.11317016298169,0.5072022820409656,0.01806057358878443,0.1111111111111111,10,10
24,9.549615268103638,32.21737070814342,113.8682244912206,33.87513678466593,19.33245094464959,-0.03886724115598238,0.913566283227238,7.403273324678975,1.097529317574964,0.4923576019063254,0.0196604793751789,0.1111111111111111,10,10
25,9.513426332155804,33.12694794815456,121.3284616220524,34.96326061608132,19.81780187778219,-0.03358201360449545,0.905660890763564,7.514184267842486,1.078674637856907,0.4785071185247147,0.02132764275371546,0.1111111111111111,10,10
26,9.482291513988859,34.02885483180586,128.8904638360963,36.03265320154397,20.28977053732464,-0.02847938063788645,0.8979459416004849,7.608056388826963,1.057885250863521,0.4655813425665122,0.02306196088542301,0.1111111111111111,10,10
27,9.455999783069315,34.92331022673082,136.5366652181584,37.08253590917711,20.7492505738799,-0.02409506423374172,0.890957134204331,7.682008038112665,1.040652282489304,0.4535175007774084,0.02486332678888936,0.1111111111111111,10,10
28,9.434307468655939,35.81056561700768,144.249538942832,38.11228501195006,21.1970705871752,-0.01948614198195492,0.8837515227250048,7.740315251600842,1.019629218345566,0.4422536898645023,0.02673162934686069,0.1111111111111111,10,10
29,9.417033314605041,36.69081004879897,152.0117343334734,39.12125576557621,21.63400523661338,-0.01507206832530903,0.8767485382351126,7.781152367750234,0.9983268871447768,0.4317384168322082,0.0286667533130962,0.1111111111111111,10,10
30,9.404001329712729,37.56422727999957,159.8060131792288,40.10887401599663,22.06077904375233,-0.01096311778336061,0.8700584319541735,7.80463074187825,0.9767155174937442,0.4219240628938567,0.03066857931947542,0.1111111111111111,10,10
31,9.395047621615367,38.43098894653107,167.6152799020721,41.07460980934837,22.47807086222172,-0.007094186021209724,0.8636160763167572,7.811287119861999,0.9541231164812848,0.4127672673342491,0.03273698388336421,0.1111111111111111,10,10
32,9.390018833330243,39.29125612577817,175.4226090885382,42.01795852695598,22.88651798824982,-0.003036474404129148,0.8569926495268467,7.800892314623901,0.9318145465696617,0.4042284838957944,0.03487183941522853,0.1111111111111111,10,10
33,9.388795903716938,40.14515557591551,183.211276972526,42.93845294568608,23.28672134761285,0.0005674914454108573,0.8508306541156792,7.773643464065466,0.9091807603139331,0.3962738248233835,0.03707301422650744,0.1111111111111111,10,10
34,9.39124834282385,40.99282546091403,190.9647635520557,43.83566118768724,23.67924816970611,0.004316015005155584,0.8445317635836306,7.730530748522403,0.8853228787478447,0.3888705013425048,0.03934037253773526,0.1111111111111111,10,10
35,9.397281721262422,41.83436786139206,198.6668180372149,44.70915908146677,24.06463620861274,0.007747735185960492,0.8385573160660257,7.670737899172035,0.8619580444103285,0.3819910583988911,0.04167377448691689,0.1111111111111111,10,10
36,9.406795214749437,42.66989122982869,206.3014530756842,45.55856968518471,24.44339549432106,0.01116088864234923,0.8326090520238736,7.595572628811561,0.8373808494578245,0.3756091375409337,0.04407307613815536,0.1111111111111111,10,10
37,9.419704659336636,43.49948733523532,213.8530102526026,46.3835311917201,24.8160119037924,0.01463092146300897,0.8266115025532758,7.505427772473199,0.8115639593369868,0.3697014910286989,0.0465381294905316,0.1111111111111111,10,10
38,9.435945045891929,44.32322876845447,221.3062072059437,47.18368873980258,25.18294844654893,0.01786556862102493,0.8208569099359282,7.398842196038014,0.7878934510596241,0.3642480337692268,0.04906878248723201,0.1111111111111111,10,10
39,9.455444348698764,45.14119511582862,228.6460986401077,47.95874972761337,25.54465010952318,0.02111587687325075,0.81509420473316,7.278430720300475,0.7622253475095722,0.3592292118693126,0.05166487902492878,0.1111111111111111,10,10
40,9.478150129380975,45.95344635315153,235.858197261125,48.70841352936162,25.90154339830603,0.02429447908719299,0.8094107314652361,7.143469818033168,0.7368316119326233,0.3546284380154801,0.05432625896341037,0.1111111111111111,10,10
41,9.50401282585227,46.76003955729763,242.9284731927874,49.43242020983111,26.25403867069548,0.02742759962070938,0.8037802432298504,6.994809546866172,0.711029195520881,0.3504303711895959,0.05705275813545807,0.1111111111111111,10,10
42,9.532991174661106,47.56102348510199,249.8433830326599,50.13052797153743,26.60253255885056,0.03052409819802949,0.7981938578227155,6.8327585262225,0.6852810049592906,0.3466213493705327,0.05984420835697302,0.1111111111111111,10,10
43,9.565048411568279,48.35644236849358,256.5899957942318,50.8025326584396,26.94740659114887,0.03358457273637528,0.7926509549234284,6.658057504324549,0.6592506224226806,0.3431889475170816,0.06270043743735187,0.1111111111111111,10,10
44,9.600154683561897,49.14633350742276,263.1559142948788,51.4482464336098,27.28903108508961,0.03663343984100166,0.7871270955860303,6.470841346286672,0.6339159391243081,0.340122145987335,0.06562126919010658,0.1111111111111111,10,10
45,9.638282190182569,49.93073212817448,269.5293220851357,52.06753441599592,27.6277667034898,0.03963965428335887,0.7816533027615835,6.274189816595143,0.6043850391930397,0.3374107603525378,0.06860652344373386,0.1111111111111111,10,10
46,9.67941809243907,50.70965847346872,275.6991048456478,52.6602176407882,27.96396525704354,0.04262751995903369,0.7762052503432426,6.063099770943579,0.582059750355272,0.3350467107719017,0.07165601605282812,0.1111111111111111,10,10
47,9.72354378423276,51.48313853038879,281.654826585643,53.22621388120669,28.29797022929336,0.04558278645164691,0.7707971666045874,5.839533583298746,0.564437673894375,0.3330218817088207,0.07476955890944104,0.1111111111111111,10,10
48,9.770626371365333,52.25121255034227,287.3867700460201,53.76558794882982,28.6301171303484,0.04849964147850822,0.7654348417564836,5.618036023385088,0.523917615600171,0.331327271617928,0.07794695995468537,0.1111111111111111,10,10
49,9.820677663559492,53.0138760598163,292.8860530000725,54.2781410394254,28.96073377149656,0.05161679901432662,0.7598795398155214,5.380780993973202,0.4979498643620888,0.3299588652660032,0.08118802319058083,0.1111111111111111,10,10
50,9.873687184053189,53.77114684995817,298.1444436407601,54.76393658548128,29.29014241821027,0.05451706235733758,0.7545484355406287,5.135700331178079,0.471862073117006,0.3289107234861183,0.08449254869214484,0.1111111111111111,10,10
51,9.929645487945731,54.52304165832551,303.1545481636957,55.22299227649439,29.61866037898954,0.05765056653620425,0.748991372024987,4.881890677207315,0.4495676813483453,0.3281776521927231,0.08786033261972603,0.1111111111111111,10,10
52,9.98855159564248,55.26956873530556,307.9097916159122,55.65542463883937,29.94660106758647,0.06040886111075153,0.7438167778964129,4.625661593329486,0.4195343071449438,0.3277554374762881,0.09129116723157615,0.1111111111111111,10,10
53,10.05040182071892,56.01073901622681,312.4044697438248,56.06130647348112,30.27427351396213,0.06324548324234493,0.7385710942467973,4.364415826431548,0.3891395053258275,0.3276402455311285,0.09478484089666606,0.1111111111111111,10,10
54,10.11520144554344,56.74655444586043,316.6337288955912,56.44074971282233,30.60198316492305,0.06607722509657847,0.7333375072291712,4.09596971918166,0.3644232673682026,0.3278293624622567,0.09834113810773948,0.1111111111111111,10,10
55,10.18294592864773,57.47702677121327,320.5935557959473,56.79394183019188,30.93003258248303,0.06913731260209499,0.727882769298287,3.822884366610699,0.3422702360811893,0.3283195380795998,0.1019598394946071,0.1111111111111111,10,10
56,10.25363891761457,58.20215952865794,324.2808028230197,57.12112556150755,31.25872172335443,0.07196094687123948,0.7226716577900438,3.550075900143,0.3141675994877886,0.3291084968495515,0.1056407218376771,0.1111111111111111,10,10
57,10.32727854058883,58.92196175249793,327.6932260980872,57.42252484765051,31.588348314792,0.07503569515201713,0.7172165839687392,3.275988451314127,0.2855027121435918,0.3301939752857543,0.1093835580817271,0.1111111111111111,10,10
58,10.40387469886073,59.63643068242624,330.829468612743,57.69838580676316,31.91920838742833,0.07821229628817425,0.7116667875680145,2.997306357457656,0.2645417146278777,0.3315750237196087,0.1131881173499065,0.1111111111111111,10,10
59,10.4834269618927,60.34557386856908,333.6889916519123,57.94908356503816,32.25159650742141,0.08105725686471094,0.7064557406438938,2.721957724290995,0.2367640351536151,0.3332499127604058,0.1170541649579816,0.1111111111111111,10,10
60,10.5659393915193,61.04939434730024,336.2721801207312,58.17491511097805,32.5858060651516,0.08398385012509985,0.7011701486583894,2.444112183050343,0.215994812075849,0.3352178475624711,0.1209814624288098,0.1111111111111111,10,10
61,10.6514060673703,61.74790511388882,338.5803008661855,58.37631115501683,32.92212916484093,0.08700374810658792,0.6957983183496514,2.168981798627279,0.1935362202114193,0.3374772383390975,0.1249697675070506,0.1111111111111111,10,10
62,10.73982887651974,62.44111133697542,340.6153838862446,58.55370498669511,33.26085707745654,0.08985696015208874,0.6906002192074481,1.89873994820497,0.1664662137232575,0.340027467510416,0.12901883417411,0.1111111111111111,10,10
63,10.83120573577575,63.12902213627248,342.3802159526133,58.70753123279503,33.6022804967392,0.09281389129334126,0.6853054250905344,1.632227235293772,0.1390207966945174,0.342867914599793,0.133128412663315,0.1111111111111111,10,10
64,10.92553715634316,63.8116440148864,343.8784259815786,58.83825305068785,33.94668958741131,0.09591557972403814,0.6798728767622904,1.367080189528984,0.1175619067267024,0.3459984127640771,0.1372982494753208,0.1111111111111111,10,10
65,11.02282025523045,64.48898684833713,345.1144174889183,58.94640593188537,34.29437404584457,0.09887557579403886,0.6745890028952894,1.105394467477392,0.09914537566306603,0.3494186240704289,0.1415280873937482,0.1111111111111111,10,10
66,11.12304382629312,65.16106881632898,346.0932452735232,59.03257521173235,34.6456230931858,0.1016224394094806,0.6695252226626573,0.8521531208874187,0.07520756050667954,0.3531276675791273,0.1458176655010498,0.1111111111111111,10,10
67,11.22619649489397,65.82790824378704,346.8207862497899,59.09731929402888,35.0007253671381,0.1045582349947815,0.6642794507892074,0.6042183737815634,0.05382564395569167,0.3571249801769805,0.150166719194605,0.1111111111111111,10,10
68,11.33226576594831,66.4895245547013,347.3035854455505,59.1412657211355,35.35996887907788,0.1075305113898828,0.6590041176481183,0.362971404079051,0.0334060682862023,0.3614099608154026,0.1545749802030409,0.1111111111111111,10,10
69,11.44123634048011,67.1459399564306,347.5488051713798,59.16506504226096,35.72364094670499,0.1104204659384562,0.6538180051707947,0.1291383210011254,0.01361927659017859,0.3659819336097411,0.1590421766027825,0.1111111111111111,10,10
70,11.55308789184613,67.79718166397009,347.5641696929464,59.1693870121324,36.09202805695053,0.113307293920767,0.6486418974117578,-0.09736546889721609,-0.004127937092317957,0.3708399512251772,0.1635680328348247,0.1111111111111111,10,10
71,11.66779348714001,68.44328347821835,347.3579109335238,59.154973142774,36.46541559771023,0.1159311668978502,0.6437356022060765,-0.3109380541564555,-0.03023076787813839,0.3759824831720738,0.1681522697217305,0.1111111111111111,10,10
72,11.78533020087247,69.08427516945012,346.9388864178152,59.12247003193497,36.84408755489142,0.1188567717002872,0.6385344121887861,-0.5214733866905448,-0.04336167409126013,0.3814087694773963,0.1727946044848526,0.1111111111111111,10,10
73,11.90566129764199,69.72020030048694,346.3162495019026,59.07268396282176,37.22832646438127,0.1217063934739279,0.6334160217315876,-0.7211901042076931,-0.05857985460758641,0.3871165487049424,0.1774947507617765,0.1111111111111111,10,10
74,12.02875121080995,70.3511012458037,345.4995864062589,59.00635540204514,37.61841302932414,0.124712566397779,0.6281478762322923,-0.9129650009365697,-0.06911070967056343,0.3931039520989271,0.1822524186239837,0.1111111111111111,10,10
75,12.15455847552317,70.97702625905063,344.4987910746654,58.92431271709439,38.01462592462634,0.1273507168154191,0.6232545289808282,-1.09117949594506,-0.08602745421918367,0.3993684146844871,0.1870673145947376,0.1111111111111111,10,10
76,12.28303679110379,71.59802840640648,343.3241472950874,58.82735029483725,38.41724084877677,0.1296777072210197,0.618679097186364,-1.257216585946033,-0.1059219679577987,0.4059071092005146,0.1919391416671856,0.1111111111111111,10,10
77,12.41413057770252,72.2141700093869,341.9862681594565,58.71626245672911,38.82652990612752,0.1322075138944087,0.6139075843443234,-1.415088071612754,-0.1197778277151222,0.4127164342267582,0.1968675993226798,0.1111111111111111,10,10
78,12.54777778613469,72.8255198436779,340.4958699592229,58.59188025795196,39.2427618574843,0.1352232348119165,0.608656872298651,-1.565076433104615,-0.1263612425256539,0.419792090650777,0.2018523835493152,0.1111111111111111,10,10
79,12.68391966340149,73.4321433681489,338.8638094293102,58.45511106134801,39.66620108789878,0.137548205054318,0.6041036058510389,-1.699754503869343,-0.1414202465513075,0.4271297538584428,0.2068931868606824,0.1111111111111111,10,10
80,12.82248635553544,74.03411712104743,337.1011121910173,58.30678826675664,40.09710688747361,0.1393781988092715,0.6000519907609405,-1.822125714606152,-0.1585667074903752,0.4347242985814156,0.2119896983148343,0.1111111111111111,10,10
81,12.963386291357,74.63153933798735,335.2188764427304,58.14770795343729,40.535732688215,0.1425449485734843,0.5946702745385748,-1.940492282859637,-0.1592743910828034,0.4425687128327543,0.2171416035334675,0.1111111111111111,10,10
82,13.10655436996121,75.22448176468744,333.2281366625293,57.97885418928929,40.98232570913662,0.1442637771066965,0.5907431144892792,-2.041077290829193,-0.1738918625247718,0.4506574806023067,0.2223485847213142,0.1111111111111111,10,10
83,13.2518898472493,75.81305176880687,331.1399682177966,57.80102885098204,41.43712548445033,0.1461155274160574,0.5866896477356844,-2.132374022930307,-0.1839471370574639,0.4589824055024544,0.2276103206857456,0.1111111111111111,10,10
84,13.39929238087656,76.39735629793218,328.9653398269972,57.6151049639931,41.90036394063099,0.1482848383700617,0.5823252155935315,-2.214309089979022,-0.1895886137547551,0.4675348272954119,0.2329264868565845,0.1111111111111111,10,10
85,13.54865916663586,76.97750474317745,326.7151053187106,57.42197007300865,42.37226482648796,0.1504424359315225,0.5779790723390494,-2.284937414240812,-0.1953078163737638,0.476305531608205,0.2382967553061263,0.1111111111111111,10,10
