"time","N","V","der(N)","der(V)","Minf","Ninf","lambdaN"
0,6.1441746e-06,-50,0.000215374362572616,15.01001135051719,0.000335350130466483,0.001159483251886528,0.1867398467754421
0.2,5.612431758232326e-05,-47.02739255273553,0.000286980249021523,14.71687858311453,0.0004983784433957861,0.001746129726044265,0.1698102547983565
0.4,0.000123092762559601,-44.11264303050254,0.0003850198497954762,14.43117182396079,0.0007349160690900969,0.002607970803475579,0.1549451697249294
0.6,0.0002129650586408372,-41.25428183040949,0.0005179720014580116,14.15336292047352,0.001075488490016652,0.003863484808812878,0.1418899326414001
0.8,0.0003336114279095256,-38.4506919228759,0.0006969349461877073,13.88411683767017,0.001562207045290365,0.005677149590464059,0.1304257450749693
1,0.0004956326156617574,-35.7000290979781,0.0009363532918295383,13.62434316024888,0.002252774910057209,0.008274967336307282,0.1203641860716645
1.2,0.0007130836030462944,-33.00026321298498,0.001254945602208779,13.37527705824652,0.003225719149839601,0.01196385324340971,0.1115430892573357
1.4,0.001004300688160429,-30.34909873966482,0.001676826228307655,13.13856971786516,0.004587235969551851,0.0171551719890784,0.1038226481448309
1.6,0.00139275065105239,-27.74386653754667,0.002232808844483654,12.91640478623126,0.006480116811880376,0.02439191621345099,0.09708216754324683
1.8,0.00190889297099481,-25.18138347551284,0.002961724041619436,12.71163134766961,0.009095385057163508,0.0343777473906991,0.09121738646319662
2,0.002592021082452416,-22.65781668216509,0.003911681159607279,12.527939195128,0.01268742222184077,0.04800360848027885,0.08613839294669771
2.2,0.003492077914469616,-20.1684910246227,0.005140917595450019,12.37008399924077,0.01759367609379825,0.06636413032388966,0.08176793023985586
2.4,0.004671522371169439,-17.70765605737285,0.006717624226290393,12.24417651851563,0.0242603104052771,0.0907506045806879,0.07804014696554898
2.6,0.006207331896778277,-15.26817364887158,0.00871787899314176,12.15804488014884,0.03327557536349091,0.1226012923062973,0.07489975392596734
2.8,0.008192160827873718,-12.84112678152569,0.011220659584574,12.1216985001952,0.04541286161052144,0.1633844181372577,0.07230167135339119
3,0.01073400523723833,-10.41533441386856,0.01429890606651794,12.14789500587537,0.06168501941799431,0.2143894751922029,0.07021125467280567
3.2,0.01395374273063889,-7.976737689339258,0.01800629887893979,12.25274864294401,0.0834095181423084,0.2764162035042433,0.06860523530057012
3.4,0.01797981005384179,-5.507680002518588,0.02236103466593897,12.45616141473075,0.1122770057979124,0.3493837810258696,0.06747364734451644
3.6,0.02293935782887046,-2.986160370224201,0.02733047388856043,12.78148319155751,0.1503973408708765,0.4319368599623599,0.066823082649635
3.8,0.02894709352292334,-0.385336360582493,0.03282307253547865,13.25297725955195,0.2002533756836234,0.5211826113104954,0.06668164191606282
4,0.03609396134818754,2.326000944160447,0.03869481742990231,13.88827754886802,0.2644045726719051,0.6127196760812116,0.06710560497257376
4.2,0.04443887629700965,5.180627539208262,0.04477482523253338,14.68170386846892,0.3446628835236728,0.7010913848228673,0.06818648318735576
4.4,0.0540072703298753,8.205619251669054,0.05090747194939024,15.57652172646246,0.4404709958170546,0.7806983373539182,0.07005380175907122
4.6,0.06479882310290985,11.40918075189026,0.05699737984563275,16.43790620578162,0.5468349883317737,0.8470451395028828,0.07286372418849363
4.8,0.0768024016235182,14.76503226419271,0.06303217692100065,17.06303222617873,0.6536987676098205,0.8979349442296625,0.07676248796685919
5,0.09001112502316079,18.20552997735538,0.06905836379223555,17.25887960736669,0.7491474788160959,0.9339517114918749,0.08182846624451996
5.2,0.1044279929500377,21.63400411886771,0.07511592988811143,16.94069137536381,0.8250870608030911,0.95778839153565,0.08802368848215954
5.4,0.1200578984923079,24.9504933152262,0.08117651453478704,16.15537642472103,0.8801022828186937,0.9728638772254439,0.09518755327604143
5.6,0.1368912473459367,28.07294380494303,0.08712452971214733,15.02213806548485,0.9175659471953277,0.982190639166154,0.1030694338068061
5.8,0.1548881875779884,30.94450193099553,0.09277864314136973,13.66535439394107,0.9422746436538805,0.987944889011187,0.111371342408929
6,0.173969133225497,33.53080990528224,0.09792878803367404,12.18341366680599,0.9584110129611001,0.9915312733813115,0.1197814615229251
6.2,0.1940125343103426,35.81423403265583,0.1023708322814594,10.64591657582202,0.968988597076923,0.9938051655404198,0.1279967185044123
6.4,0.2148588177520902,37.78875744632379,0.1059327369224373,9.100942530104096,0.9759943519061295,0.9952751030859059,0.1357387575236536
6.6,0.2363187217181544,39.45645289347386,0.108491698116867,7.582576974064784,0.9806879877019791,0.9962423635134765,0.1427665783111511
6.8,0.2581842178567725,40.82528595046544,0.1099830549866104,6.116035110621534,0.9838577001547244,0.9968868585685253,0.1488867765257207
7,0.2802402780863157,41.90763500254999,0.1104013847492914,4.720600446141103,0.9859965804574808,0.9973174317895828,0.1539602596166053
7.2,0.3022763347427896,42.71927221446289,0.1097952999806601,3.411093201677741,0.9874148116118426,0.9976008636540812,0.1579051154035551
7.4,0.3240961428550915,43.27854816314615,0.1082575317020483,2.198548478918389,0.9883085802035625,0.9977785826522677,0.1606951959956698
7.6,0.3455253900102377,43.60566973440901,0.1059122848427342,1.090540631776986,0.988801967293244,0.9978763777728396,0.1623547550774568
7.8,0.3664166162811935,43.7220310831195,0.1029018988983738,0.09141244701981747,0.9889724611608579,0.9979101188475239,0.1629500517110471
8,0.3866516117615386,43.64959189852601,0.0993744839656841,-0.7974707502322701,0.9888666265729568,0.9978891771971012,0.1625791502112124
8.199999999999999,0.4061414849872141,43.41031394330604,0.09547371465326844,-1.577392297976019,0.9885098507408455,0.9978185040518713,0.1613612014274215
8.4,0.4248249827484051,43.02567013180551,0.09133133879588476,-2.251887771220473,0.9879125049431052,0.997699914447246,0.159426314091009
8.6,0.4426656008264288,42.5162367408961,0.08706245670934956,-2.826305941896038,0.9870739235440813,0.9975328945650446,0.1569068094151582
8.800000000000001,0.4596479769890748,41.90137720575503,0.08276327392480912,-3.307359620491505,0.9859850553278126,0.997315121565693,0.1539303168505496
9,0.475774064656598,41.19901160704481,0.07851079202266087,-3.702696485413236,0.9846303001864611,0.997042807376977,0.1506148088084689
9.199999999999999,0.4910593769406294,40.42546983542659,0.07436388756436188,-4.020512062000131,0.9829888591225227,0.9967109364590622,0.1470654765411656
9.4,0.5055295483682842,39.59541627784379,0.07036524048229401,-4.269218425124885,0.9810357914925316,0.9963134386391793,0.1433731666364495
9.6,0.5192173206952824,38.72183393151545,0.06654368195322219,-4.457173171724639,0.9787428962887619,0.995843321608034,0.1396140408324121
9.800000000000001,0.5321600373792469,37.81605874729989,0.06291664363431544,-4.592471067114852,0.9760794912871906,0.995292778560062,0.1358501311608882
10,0.544397647724925,36.88785098765848,0.05949249049969996,-4.682793135952909,0.9730131214223652,0.9946532776372556,0.1321304755507083
10.2,0.5559709009631838,35.94547661432416,0.05627262027064365,-4.735286464337011,0.96951014347636,0.9939156219745247,0.1284925187377391
10.4,0.5669203767316489,34.99583470898764,0.05325326309776785,-4.756518118677914,0.9655363285886014,0.9930700094741889,0.1249637662598691
10.6,0.5772854299251772,34.04456913098171,0.05042697834939777,-4.752432852173911,0.9610572945057305,0.9921060524256302,0.1215633351240697
10.8,0.5871036869681124,33.09619931252645,0.04778384933004243,-4.728356337265206,0.9560388912177346,0.9910127816118576,0.1183034746275981
11,0.5964106592816621,32.15424309106351,0.045312415478829,-4.689010813958655,0.950447446595817,0.9897786134249836,0.115190917311784
11.2,0.605239464686783,31.22133148024547,0.04300038134498082,-4.638541335958342,0.9442498585393845,0.9883912739370779,0.1122280524503297
11.4,0.6136207373639699,30.29932061730527,0.04083513750630076,-4.580556751373254,0.9374135701265593,0.9868376839688103,0.109413942420832
11.6,0.6215825768022908,29.38939404503634,0.03880413424236236,-4.518174702777548,0.9299064062015542,0.9851037954285611,0.1067451698940749
11.8,0.629150602819471,28.49215657065962,0.03689513179832511,-4.454072632858299,0.9216962967846382,0.9831743781729507,0.1042165367608056
12,0.6363480302183853,27.60771741796195,0.03509635886255843,-4.390539132108549,0.9127508916385341,0.9810327504101664,0.1018216265665358
12.2,0.6431957761578795,26.73576285145025,0.03339659838344031,-4.329525268378404,0.9030370860016385,0.9786604473246061,0.09955325032376398
12.4,0.6497125733977707,25.87561835480729,0.0317852197147579,-4.272694029703231,0.8925204772751973,0.9760368203876394,0.09740379395020782
12.6,0.6559150860612407,25.02630185447175,0.030252171290142,-4.221467572386129,0.8811647900172328,0.9731385616348744,0.09536548717095145
12.8,0.6618180222018111,24.18656714788188,0.02878794241995689,-4.177071083695543,0.8689312810770738,0.9699391378971578,0.09343060554285681
13,0.667434236068895,23.35493904169757,0.02738350299609585,-4.140572978065544,0.8557781630744909,0.9664081225457568,0.09159162132447682
13.2,0.6727748173491045,22.52974132604992,0.02603022670718154,-4.112921105741094,0.8416600885344776,0.9625104090966077,0.08984131549107775
13.4,0.6778491634070162,21.70911765042658,0.02471980059910884,-4.094974230305638,0.8265277269072984,0.9582052828318295,0.08817285904022602
13.6,0.682665032020684,20.89104658694061,0.02344412356560941,-4.0875283612673,0.8103274936498659,0.9534453271283894,0.08657987301581267
13.8,0.6872285726376025,20.07335201612727,0.02219519498442395,-4.091337214853411,0.7930015058812483,0.9481751384519308,0.08505647474286569
14,0.6915443344633361,19.25371011698619,0.02096499400905094,-4.107125717874993,0.774487864175456,0.9423298241679127,0.08359731670978074
14.2,0.6956152492413896,18.42965448880974,0.01974534981888088,-4.135594942098263,0.7547213934578065,0.9358332618986029,0.08219762373547368
14.4,0.6994425883710791,17.59858144767353,0.01852780345591242,-4.177416262468242,0.7336350218764515,0.9285961127959952,0.08085323366686073
14.6,0.7030258877360217,16.75775804887387,0.0173034635119737,-4.233211447932254,0.7111620270886743,0.9205136073517013,0.07956064619441722
14.8,0.7063628509506228,15.90433446071731,0.01606285696061535,-4.303514981167757,0.6872393856601261,0.9114631518967911,0.07831708138171524
15,0.7094492198034693,15.03536809202296,0.01479578766798377,-4.388713638690518,0.661812635293164,0.9013019294997678,0.07712055613603477
15.2,0.7122786136636097,14.14786360137856,0.01349121609098856,-4.488957593753156,0.6348425720747416,0.889864766448341,0.07596997783572974
15.4,0.7148423677283764,13.23881677736465,0.01213715880653903,-4.604039637752504,0.6063134917029968,0.8769624657761581,0.0748652323351164
15.6,0.7171293128492667,12.30531783609499,0.01072070921610587,-4.733237254517206,0.5762445731691082,0.8623819591980637,0.07380732458644572
15.8,0.7191256011955097,11.34467729858508,0.009228176519824587,-4.875121568917083,0.5447028927991922,0.8458888809575095,0.0727984991959079
16,0.7208145924202258,10.35457709784407,0.007645407995588729,-5.027347483936078,0.5118170356459144,0.8272338624481775,0.0718423269919124
16.2,0.7221768341387852,9.333278047855098,0.00595842081074128,-5.186449286223985,0.4777905589282946,0.806164777520297,0.07094376372184034
16.4,0.7231901827938895,8.27985620582205,0.004154401209891413,-5.347686345383702,0.4429119028017361,0.7824464002731152,0.07010911912067083
16.6,0.7238301641442973,7.194465747537751,0.002223144433885439,-5.50499887963808,0.407557635505106,0.7558889331058016,0.06934590771576288
16.8,0.7240707157121932,6.078596441689188,0.0001589041029976971,-5.65114262325493,0.3721851604857409,0.7263849923284578,0.06866253665656409
17,0.7238851019905205,4.935278468239521,-0.002037505677235223,-5.778047237883484,0.3373119483375164,0.693951629947285,0.06806780296960802
17.2,0.7232476151898258,3.769197140183093,-0.00435672732120814,-5.877424451841364,0.3034814971422279,0.6587705781638206,0.06757021603599679
17.4,0.7221354757200094,2.586656324341506,-0.006779510665955714,-5.941552306867047,0.2712191658999973,0.6212156450113507,0.06717719023456559
17.6,0.7205308093247597,1.395354971301998,-0.009276596471453598,-5.964105531224462,0.240985154620397,0.5818551887208923,0.06689421277552871
17.8,0.7184223959281177,0.2040696042530522,-0.01181003391227307,-5.940853175815351,0.2131361531145151,0.5414244708102195,0.06672413761012401
18,0.715807262169319,-0.9778181457527594,-0.01433616227650318,-5.870089542878716,0.1879006855686476,0.5007648909290918,0.06666668616896915
18.2,0.7126914162947514,-2.140852761151874,-0.0168096784199791,-5.752696696134317,0.1653731410160539,0.460741226209052,0.06671826051911843
18.4,0.7090897268652827,-3.275993879318762,-0.0191878768007036,-5.591858165573692,0.1455258498986416,0.4221557150355949,0.06687208908539129
18.6,0.7050250453276395,-4.375022967403627,-0.02143420768611447,-5.392525951053665,0.1282333952565733,0.3856770491781352,0.06711865408443002
18.8,0.7005267120790121,-5.430836060113587,-0.02352053691565938,-5.160775143507962,0.113302283580404,0.3517969573135831,0.06744631507420504
19,0.6956287744984566,-6.437603748619932,-0.02542790912625181,-4.903174923514823,0.1005000746770403,0.3208181827215824,0.06784202390253986
19.2,0.6903681852846801,-7.390814516537153,-0.02714604463822699,-4.626262930174152,0.08957989249741316,0.2928687662239151,0.06829203600440287
19.4,0.6847831915573882,-8.287227577701623,-0.02867201520247015,-4.336162622386588,0.08029858933611933,0.2679330494810898,0.0687825487108078
19.6,0.6789120305851161,-9.124764479442829,-0.03000856594887755,-4.038344780532054,0.07242859505391697,0.2458894056896114,0.06930022641685085
19.8,0.6727919661289969,-9.902365099726969,-0.03116244435806684,-3.737511470147795,0.06576448087676434,0.2265470085747766,0.06983259716560604
20,0.6664586660531219,-10.61983000879573,-0.03214295622818412,-3.437571979491037,0.06012559287344166,0.2096770607505134,0.07036832450135569
20.2,0.6599457300573401,-11.27766617530997,-0.03296083003220463,-3.141676393843389,0.05535604841528041,0.1950366705951203,0.07089737091880255
20.4,0.6532845547132607,-11.87694102597024,-0.03362739818100757,-2.852288260858559,0.05132319073894293,0.1823855965617848,0.07141106940013765
20.6,0.6465042328078006,-12.41915122139051,-0.03415403558280971,-2.571271448943057,0.04791525299862204,0.171496906683593,0.07190212382930473
20.8,0.6396316215823895,-12.90611284252055,-0.03455181623781731,-2.299981749049326,0.04503871363056194,0.1621628787484485,0.07236456156845035
21,0.6326914359892452,-13.33986980188342,-0.03483131528986384,-2.039353552273339,0.04261567992712895,0.154197581561449,0.07279365234798396
21.2,0.6257063340600316,-13.72261821505297,-0.03500250573805826,-1.789977600375209,0.04058147321390632,0.1474372827098773,0.07318580543576074
21.4,0.6186970394780874,-14.05664411489731,-0.03507471678356208,-1.552169694900741,0.03888249414689326,0.1417395451355009,0.07353845405429105
21.6,0.6116824708811679,-14.34427465257256,-0.03505663100775303,-1.326029099148747,0.03747437630249284,0.1369815756872734,0.07384993658677204
21.8,0.6046798705314086,-14.58783887997606,-0.03495630016717844,-1.111487614425496,0.03632042765102733,0.1330582630880136,0.07411937794087173
22,0.5977049324684892,-14.78963837198928,-0.03478117308812462,-0.9083498725873994,0.03539032307746787,0.1298801243287677,0.07434657693000496
22.2,0.5907719204428179,-14.95192636409764,-0.03453812927876995,-0.716325718459926,0.03465901537092697,0.1273713078803727,0.07453190251041325
22.4,0.58389377634063,-15.07689082856539,-0.03423350958609938,-0.5350566179109449,0.03410584621168467,0.1254677833864977,0.07467619662117327
22.6,0.5770822243572512,-15.16664297367514,-0.03387314723192458,-0.3641366120596473,0.03371381361880477,0.1241157096746077,0.07478068716769654
22.8,0.5703478696641578,-15.22320946472454,-0.03346239720502774,-0.2031288906041965,0.03346897218190847,0.1232700011393686,0.07484691048439213
23,0.5637002913863679,-15.24852769430596,-0.03300616406584753,-0.05157874576433415,0.03335994208384202,0.1228930828870246,0.0748766431887801
23.2,0.5571481313404139,-15.24444283979691,-0.03250892738670238,0.09097624756022213,0.03337750981945903,0.1229538279288307,0.07487184224037687
23.4,0.5506991759718859,-15.21270765109275,-0.03197476724343839,0.2249986668260817,0.03351429792645333,0.1234266353244373,0.07483459432002541
23.6,0.544360433611828,-15.15498289902445,-0.03140738743259962,0.3509453966708662,0.03376449734981801,0.1242906537928405,0.07476707190441884
23.8,0.5381382074704169,-15.07283889701746,-0.03081013787095183,0.4692632971296746,0.03412364820033192,0.1255291204579972,0.07467149619519757
24,0.5320381642663505,-14.96775783928972,-0.03018603632516857,0.5803860830116676,0.034588459925115,0.1271287970913711,0.07455010620222041
24.2,0.5260653985868666,-14.8411366662038,-0.02953778944946146,0.6847321465851109,0.03515666395868944,0.1290794894207135,0.07440513319856604
24.4,0.5202244929754898,-14.69429029295262,-0.02886781319540674,0.7827031249085366,0.03582689294791824,0.1313736358478437,0.07423877989789399
24.6,0.5145195748275714,-14.52845501523204,-0.02817825261490358,0.8746830164394609,0.03659858203104588,0.1340059547248467,0.07405320368636605
24.8,0.5089543658674907,-14.34479219991148,-0.02747100108981757,0.9610378565556701,0.03747188732099399,0.1369731368416178,0.07385050359061761
25,0.5035322276447657,-14.14439190629149,-0.02674771880173041,1.042115716352076,0.03844761967783406,0.1402735788500019,0.07363271016526439
25.2,0.4982562144097655,-13.92827634911049,-0.02600985121941371,1.118246687835351,0.03952719142583705,0.1439071511127145,0.07340177783286429
25.4,0.4931291163624902,-13.69740302710279,-0.02525864610970313,1.189743148872617,0.04071257474565793,0.1478749965488428,0.07315957916255023
25.6,0.4881535121342213,-13.45266877297527,-0.02449517253804935,1.256900079817717,0.04200626344644121,0.1521793332753519,0.07290790209309175
25.8,0.4833317372293749,-13.19491316218445,-0.02372033257753207,1.319997195964936,0.04341124411894387,0.156823281867972,0.07264844811224477
26,0.4786660009493159,-12.92492187020893,-0.02293488368604971,1.379297738894408,0.0449309725422074,0.1618107036364496,0.07238283178647179
26.2,0.474158364572895,-12.64342903571469,-0.0221394492114839,1.435050223167109,0.04656935974653637,0.1671460644389319,0.0721125805116716
26.4,0.4698107630712561,-12.35112012554788,-0.02133453283322212,1.487489295077934,0.04833075891532684,0.1728342948838117,0.07183913581919318
26.6,0.4656250774477261,-12.04863676007151,-0.02052053992038533,1.536835691994298,0.05021994230568771,0.1788806130977522,0.0715638572723756
26.8,0.4616030558288536,-11.73657477765229,-0.01969777654300249,1.58329857288204,0.05224212160237768,0.1852904816338855,0.07128802082348809
27,0.4577464599201585,-11.41549298116549,-0.01886648277047604,1.627074267471423,0.05440290279806387,0.1920693499009007,0.07101282744722903
27.2,0.4540569548441508,-11.08590872497254,-0.01802682508439118,1.668348904407679,0.05670832597361303,0.1992226620838589,0.07073940045168091
27.4,0.4505362086401347,-10.74830511474726,-0.0171789236938911,1.707297852869778,0.05916483000253514,0.2067556233798241,0.07046879338462216
27.6,0.4471858687259807,-10.40313102309226,-0.01632285869265008,1.744086891811519,0.0617792642099862,0.214673111615061,0.07020199190560236
27.8,0.4440075429407698,-10.05080137895807,-0.01545867681514416,1.778873339650094,0.06455890081436433,0.2229795861906181,0.06993991639084159
28,0.4410028774006549,-9.691703224397315,-0.01458641541535498,1.811805482274305,0.06751140149925772,0.2316788584024465,0.06968342899760505
28.2,0.4381734550735759,-9.326191383818594,-0.01370609490610375,1.843025003553266,0.07064486502042711,0.2407741038735172,0.06943333310256426
28.4,0.4355209110218564,-8.954596365746571,-0.01281774870233404,1.872665518825568,0.0739677745505577,0.2502675797072684,0.0691903816864031
