"time","M","P0","P1","P2","Pn","der(M)","der(P0)","der(P1)","der(P2)","der(Pn)","Pt"
0,0.1,0.25,0.25,0.25,0.25,0.6487094682230868,-0.142,-0.09777777777777785,-0.4,0.15,1
0.16,0.1972529771924829,0.2314357553121259,0.2317614271543132,0.2015941388919346,0.2641667178553087,0.5724317747564394,-0.09285725823147295,-0.1225025618296336,-0.2261817047490261,0.03961213068277453,0.9289580392136824
0.32,0.2844562730571257,0.2195957798481642,0.2124162848319896,0.1728849695115647,0.2655114838023653,0.5205413809901935,-0.056801349908365,-0.1162484491144427,-0.1426328137371363,-0.01668348687110199,0.8704085179940838
0.48,0.3645538191804466,0.2128341150165264,0.1951471685644784,0.1537699302072373,0.2602359605108112,0.4824467181390804,-0.02878996073238976,-0.09868709423700039,-0.1007763975192146,-0.04614388127030383,0.8219871742990533
0.64,0.4392952100149208,0.210097539349279,0.1809632589518024,0.1396729033784639,0.2514833239062969,0.4529763794470353,-0.006169096035028576,-0.07857453141358223,-0.07741272540991356,-0.06154980465910459,0.7822170255858422
0.8,0.5098123618156639,0.2106528320591441,0.1699483603938634,0.1285752023673506,0.2409604505831556,0.4292884750200329,0.01254524470030655,-0.05940107389474047,-0.06220554400944878,-0.0689557012601362,0.7501368454035138
0.96,0.5768841514722745,0.2139525154634981,0.161840935842624,0.1195718349747233,0.2296791118477552,0.4096875444331892,0.02825638722021928,-0.04232017833211943,-0.05077836114776479,-0.07139635895010749,0.7250443981286006
1.12,0.6410722510662292,0.2195672409879232,0.1562830716203398,0.1122225507254586,0.218287421496149,0.3930981814058343,0.04156765752371028,-0.02752497514244473,-0.04134414041555362,-0.07055080156662233,0.7063602848298706
1.28,0.7027975652586166,0.2271497207715809,0.1529192236511274,0.1062753247419676,0.2072216096574642,0.3788046131408085,0.05291663633996196,-0.01485615432144211,-0.03317556760184537,-0.06746497554496497,0.69356587882214
1.44,0.7623854585329977,0.2364139951295952,0.1514296466259384,0.1015559684666106,0.1967794075469835,0.366311259106587,0.0626398847804055,-0.004050914783061854,-0.0259601459893668,-0.06285688972451842,0.6861790177691278
1.6,0.8200939976449411,0.24712222968131,0.1515379651704649,0.09792593279789191,0.187160367757063,0.3552631888573926,0.07100607198094294,0.005161431702818797,-0.01954017681257175,-0.05724920576818729,0.6837464954067297
1.76,0.8761324118462808,0.2590754387931287,0.1530093592927912,0.09526669820880325,0.1784916285990203,0.3453985066825733,0.07823462405586579,0.01302628139897688,-0.01381215286524323,-0.05103239058200029,0.6858431248937434
1.92,0.9306735865471414,0.2721065345004259,0.1556457402420408,0.09347420284094238,0.1708462633428643,0.3365187807314388,0.08450724251577441,0.01975558347073003,-0.008691346686256873,-0.04449915694793313,0.6920727409262735
2.08,0.9838624058524598,0.2860750055578611,0.1592802732865852,0.0924571935286416,0.1642568292612748,0.3284701732601342,0.08997530747030846,0.02553003129448222,-0.004104687768269943,-0.03786521033523824,0.7020693016343628
2.24,1.035821680779587,0.3008625882234112,0.1637726612836315,0.09213572792420911,0.158726178668544,0.3211310139266586,0.09476553715381408,0.03050200165447153,1.346868018670122e-05,-0.03128614921310993,0.7154971560997959
2.4,1.08665679493361,0.3163696075787296,0.1690049981925489,0.09243980632076107,0.1542362249108006,0.3144033606364137,0.09898457402296457,0.03479893277851809,0.003723888522428831,-0.0248714603745947,0.7320506370028401
2.56,1.136458988696715,0.3325120596487159,0.174878093827911,0.09330856566636933,0.1507544152676196,0.3082071923039039,0.10272231445575,0.0385276682357778,0.007080866440677402,-0.01869446508180378,0.7514531344106159
2.72,1.185307835855737,0.3492191812099935,0.1813084193668761,0.09468935162388718,0.1482387450237415,0.3024762892299703,0.1060546183898916,0.04177800838222379,0.01013169546491366,-0.01280060044547829,0.7734556972244981
2.88,1.2332732074616,0.3664313826253245,0.1882256226577593,0.09653660514085381,0.1466416782412023,0.2971552330583833,0.1090456363460304,0.04462523416338726,0.0129179208305637,-0.007214631945940769,0.79783528866514
3.04,1.280416828359291,0.3840985217991156,0.1955704102098941,0.0988109447507798,0.1459130245375242,0.2921971789317021,0.1117496974475287,0.04713247224084949,0.01547591196501302,-0.001946136872299858,0.8243929012973136
3.2,1.326793501258279,0.4021784692687598,0.2032927571580496,0.1014784139841378,0.1460019879877721,0.2875621704644283,0.11421283829365,0.04935283372995325,0.01783699889476148,0.003006402185758178,0.8529516283987193
3.36,1.372452094397551,0.4206358902321675,0.2113504397575893,0.1045097353988232,0.146858661008878,0.2832158396638246,0.1164741071031162,0.0513310245280979,0.02002820481947465,0.007652237946222551,0.8833547263974579
3.52,1.417436348447164,0.4394412182511929,0.2197078163628337,0.1078796536954899,0.1484350498464128,0.2791283877684279,0.1185666579003217,0.05310466439789219,0.02207296166582096,0.01200577722109408,0.9154637381559291
3.68,1.461785504327302,0.4585698276978243,0.2283348303304608,0.1115664253873048,0.1506856554792316,0.2752737787540038,0.1205186255832112,0.0547054360372552,0.02399137920925248,0.01608485611287791,0.9491567388948214
3.84,1.505534957073907,0.4780011825514933,0.2372060259922237,0.1155512725976876,0.1535681283068386,0.2716290747425223,0.1223539766081235,0.05616015995308488,0.02580114448453658,0.01990885113671634,0.984326609448243
4,1.548716695205792,0.4977182264428346,0.2462998241141081,0.1198180037933771,0.1570434294499479,0.2681739060365321,0.1240931252184014,0.057491639015531,0.02751771146128607,0.02349774892248432,1.020879483800268
4.16,1.591359514528982,0.5177070344911747,0.2555981282377086,0.1243527868353429,0.1610755024168682,0.2648900489988165,0.1257533554330912,0.05871908595493747,0.02915395774552931,0.02687214184522285,1.058733451981094
4.32,1.633489534832337,0.5379561457478357,0.265085586957087,0.1291437068708101,0.1656317131954287,0.2617610375986513,0.1273494309297926,0.0598588888888788,0.03072134169653257,0.03005181590048189,1.097817152771162
4.48,1.675130316261003,0.5584563180606898,0.2747493053732584,0.1341805673941007,0.1706824491118477,0.2587718680857861,0.1288938630890873,0.06092491126552846,0.03222975438406533,0.03305589420338925,1.138068639939897
4.64,1.71630310566179,0.5792001651107695,0.2845784515428231,0.1394546402210557,0.1762010386488511,0.2559087305209271,0.130397255706324,0.06192889007756575,0.03368789023951102,0.03590246617649934,1.179434295523499
4.8,1.757027027535622,0.6001818643092115,0.2945639315557558,0.1449585002390762,0.1821636398979203,0.2531587770727157,0.1318685737480715,0.06288082046968546,0.03510334951486316,0.03860841858694836,1.221867936001964
4.96,1.797319198327278,0.6213969206896656,0.3046981382575818,0.1506858624726942,0.1885490009013357,0.2505099228737132,0.1333153516375243,0.06378920828065526,0.03648273461150653,0.04118943752638271,1.265329922321278
5.12,1.837194876056985,0.6428419171452718,0.3149746874981778,0.1566314185761306,0.1953383055347874,0.2479506632392198,0.1347439012605355,0.0646613383826693,0.03783184658717831,0.04365989809942439,1.309786328754368
5.28,1.876667505845053,0.6645143686439119,0.3253882826930923,0.1627907440972155,0.2025149384627891,0.2454699146502074,0.1361594431298464,0.06550339667688421,0.03915570033417171,0.04603299378308351,1.355208333897009
5.44,1.915748778197258,0.6864125495541554,0.3359345449038562,0.1691601645576067,0.2100642956718741,0.2430568661307415,0.137566234022801,0.06632060816155971,0.04045871653183486,0.04832072828601641,1.401571554687492
5.6,1.95444866711516,0.7085353440071299,0.3466098651555249,0.1757366659055797,0.2179736068839815,0.2407008408096588,0.1389676668621375,0.06711738799823519,0.04174476295888457,0.05053397627142542,1.448855481952216
5.76,1.992775451477607,0.7308821078475674,0.3574112768413727,0.1825177998872954,0.2262317450564087,0.2383911658823847,0.1403663550590948,0.06789744744455606,0.04301722931552487,0.0526825512125299,1.497042929632644
5.92,2.030735681254707,0.7534525667984466,0.3683363667485642,0.1895016329718229,0.234829079659586,0.2361170494112294,0.1417641774788736,0.06866388435197934,0.04427903090101282,0.05477529908900164,1.54611964617842
6.08,2.068334162482906,0.7762466905786739,0.3793831709207009,0.1966866684268403,0.2437573235494532,0.2338674596919245,0.1431623348687275,0.06941926019678135,0.04553268217549711,0.05682014939670749,1.596073853475668
6.24,2.105573915567147,0.7992645852765944,0.3905500895379997,0.2040717819493985,0.2530093867756424,0.2316310083937152,0.1445613835703695,0.07016566205300889,0.04678034246481305,0.0588241828955221,1.646895843539635
6.4,2.142456103171269,0.8225063958322715,0.4018358219204473,0.2116561693045225,0.2625792515696642,0.2293958360764765,0.1459612538208344,0.07090473907967376,0.04802386258133395,0.06079369463802931,1.698577638626905
6.56,2.178979940005178,0.8459722074938721,0.4132393032848484,0.2194392963220688,0.2724618520257043,0.2271494994707508,0.1473612568172515,0.07163773771341098,0.04926481953967832,0.06273425537851501,1.751112659126494
6.72,2.215142554265289,0.8696619455411964,0.4247596500285347,0.2274208711440064,0.2826529826448987,0.2248788602065623,0.1487600734952585,0.07236553993030337,0.05050450435169862,0.06465077773524364,1.804495449358636
6.88,2.250938915545798,0.8935752766934356,0.4363960932510723,0.2356007884364484,0.2931491700712435,0.2225699738729099,0.1501557551776529,0.07308870194066897,0.05174394600218613,0.06654757693663538,1.8587213284522
7.04,2.286361706910139,0.9177115043199792,0.4481479229299501,0.2439790867177963,0.3039475752028296,0.2202079824707807,0.1515457083238974,0.07380747834625878,0.05298393008860924,0.06842841700013458,1.913786089170555
7.2,2.321401206536768,0.9420694427789382,0.4600144241793225,0.2525558769910316,0.3150458917128901,0.217777010325539,0.1529266888467875,0.07452182136091801,0.05422510030269057,0.07029650705620288,1.969685635662183
7.36,2.35604520324529,0.9666473523722854,0.4719948209784794,0.2613313355409573,0.3264422223196527,0.2152600668631451,0.1542947628198879,0.07523147395079977,0.05546778644543093,0.07215464851227038,2.026415731211375
7.52,2.390278319179094,0.9914427744938393,0.4840883493846969,0.2703057620344941,0.3381352479163083,0.2126389493347917,0.1556451779310806,0.07593577536162677,0.05671218121175403,0.07400512557433792,2.083972133829338
7.68,2.424082360018881,1.016452465069118,0.4962940862063043,0.279479431708507,0.3501238968937339,0.2098941597113483,0.156972419848844,0.07663387072521388,0.05795823944555711,0.07584985428430935,2.142349879877663
7.84,2.457435983966699,1.04167223878128,0.5086109304326739,0.2888525836473579,0.3624073332405986,0.2070048359162523,0.1582701505619537,0.07732465765698127,0.05920571616761938,0.07769037571720194,2.20154308610191
8,2.490314218407062,1.067096744724481,0.5210376018874288,0.2984254182057764,0.3749850009522334,0.2039486924921144,0.1595311359734859,0.07800666635391518,0.06045426993098324,0.07952779335307181,2.261544765769919
8.16,2.522688690588593,1.092719554934175,0.5335725561818969,0.3081980476540155,0.3878564019371447,0.2007019917269399,0.1607471816546375,0.07867828965891177,0.06170325506447905,0.08136296802434129,2.322346560707232
8.32,2.5545267700084,1.118532665288419,0.5462139795663836,0.3181705013213926,0.4010212741880434,0.1972395219237906,0.1619090921245874,0.07933749834096671,0.06295196074991627,0.08319629606618939,2.383938420364238
8.48,2.585791864580429,1.144526656534132,0.5589597209076554,0.3283426574035035,0.4144793305923883,0.1935346324242241,0.1630065814163029,0.07998207167145077,0.06419944074338202,0.08502791929655173,2.446308365437679
8.640000000000001,2.616443028754083,1.170690381495475,0.5718072470941263,0.3387142260988899,0.4282302743152717,0.1895592928421294,0.1640282514396887,0.0806095078762139,0.06544455140401373,0.08685767297803759,2.509442129003762
8.800000000000001,2.646434635234514,1.197010610537107,0.5847535853730668,0.349284727000185,0.4422737970383885,0.1852841933912756,0.1649615998112786,0.08121694110313027,0.06668596818376848,0.0886850451504464,2.573322719948747
8.960000000000001,2.675716288254056,1.223472264478362,0.5977953125073679,0.3600534503451289,0.4566094362637662,0.1806789224862524,0.165792763967993,0.08180132672598428,0.06792214388727802,0.09050928851284878,2.637930463594625
9.119999999999999,2.704232821477426,1.250057710249898,0.6109284606209292,0.3710194234634434,0.4712366317246245,0.1757121586829095,0.1665068466051141,0.08235920616925796,0.06915137960524464,0.09232928333853052,2.703242226058895
9.279999999999999,2.731923752580804,1.276746977712055,0.6241485065243612,0.3821813894614182,0.4861545925165591,0.1703519944049383,0.1670874898335581,0.08288690039553748,0.07037173229929528,0.09414366970516752,2.769231466214394
9.44,2.758723533704273,1.303517375253584,0.6374503079504837,0.3935377661709013,0.5013622850659485,0.164566281088651,0.1675171000310258,0.08338041551744046,0.07158106588422919,0.09595078513897937,2.835867734440917
9.6,2.784561865379907,1.330343188363125,0.6508280477604738,0.4050866046070268,0.5168584019232899,0.158323056593652,0.1677770389054305,0.08383539228374315,0.07277708900832469,0.09774862625307401,2.903116242653915
9.76,2.809362446123812,1.357195732658022,0.6642752055095137,0.4168255812390902,0.532641273189151,0.1515911240116917,0.1678470234596037,0.08424724128986694,0.07395724488734301,0.09953494920837502,2.970937792595777
9.92,2.833045533307881,1.384042962851765,0.6777844932833017,0.4287519382808933,0.5487088589012029,0.1443405726070115,0.1677062188571379,0.08461103885407928,0.07511882594666996,0.1013071661621333,3.039288253317162
10.08,2.855525329124242,1.410849351681818,0.6913478157928595,0.4408624694770794,0.5650586769554573,0.1365435574278703,0.1673322165396816,0.08492157512247389,0.07625888856398733,0.1030624119643563,3.108118313907214
10.24,2.876712177040481,1.43757576782764,0.7049562270232004,0.4531534811170688,0.5816877638035622,0.1281749960812169,0.1667018440902632,0.08517338178400591,0.07737428588136663,0.1047975211777998,3.177373239771471
10.4,2.896513801030423,1.464179399059327,0.7185998913331726,0.4656207605448668,0.5985926254592611,0.1192133594593207,0.1657915945640804,0.08536077710868595,0.07846166822585632,0.1065090319382076,3.246992676396627
10.56,2.914832330481314,1.49061328854426,0.7322680160881873,0.4782595425664662,0.6157691920577294,0.109641619330844,0.1645766537464368,0.08547774862333868,0.07951745520429832,0.1081931812012374,3.316910039256643
10.72,2.931571020017207,1.516827117738629,0.7459488989841251,0.4910644822675233,0.6332127661426211,0.09944793984146016,0.1630330058575129,0.08551829308845149,0.08053793239521712,0.1098459203228868,3.387053265132899
10.88,2.946628493131544,1.542766017021071,0.7596297780675767,0.5040296169017691,0.6509179786654544,0.08862669986531113,0.1611357696722173,0.08547604312726675,0.08151912488191237,0.1114628998482704,3.457343390655871
11.04,2.95990383667169,1.568371398468468,0.7732968753836741,0.517148333617559,0.6688787394706385,0.07717916145500325,0.1588606833969812,0.08534461405101657,0.08245690376394799,0.1130394725615319,3.52769534694034
11.2,2.971298062156726,1.593581139535176,0.786935373812609,0.5304133337793537,0.6870881898039184,0.06511414957647776,0.1561845528675274,0.08511769806820224,0.08334701134913947,0.1145706874356781,3.598018036931057
11.36,2.980711703443513,1.618328724834936,0.8005293599092943,0.543816620582406,0.7055386584383819,0.05244870045507488,0.1530847476645409,0.08478870672213268,0.08418497396641123,0.1160513231366748,3.668213363765018
11.52,2.988052728038798,1.64254545523494,0.8140621274837627,0.5573495284960533,0.724221632782469,0.03920824798428868,0.1495412608314226,0.0843513448701112,0.0849663662939818,0.1174759815252916,3.738178743997225
11.68,2.993230497599213,1.666158101749344,0.827515721208869,0.5710025955702889,0.74312768468912,0.02542700885926386,0.1455354271243678,0.08379908035009054,0.08568651414299666,0.1188389414876927,3.807804103217622
11.84,2.996162933708975,1.689092229841128,0.8408714827166942,0.5847657161910349,0.7622465205486,0.01114768629085305,0.1410513196377301,0.0831258974229041,0.08634078830304137,0.1201343840497862,3.876975949297457
12,2.996774439694811,1.711269773942796,0.8541096398745127,0.5986279630805885,0.7815668383977376,-0.003578695569077528,0.1360760516794874,0.08232559633141667,0.08692442237620057,0.1213562399360593,3.945574215295635
12.16,2.994997783591721,1.732611462928403,0.8672094136700002,0.6125776250110991,0.8010763592948078,-0.01869344939819928,0.1305994900462339,0.08139269811537386,0.08743256384084308,0.1224982204378382,4.01347486090431
12.32,2.990775579412358,1.753036364847257,0.8801490460891164,0.6266021866096397,0.8207617689110046,-0.03413105916538473,0.1246151798750681,0.08032204744931004,0.0878602763893882,0.1235538549740094,4.080549366457017
12.48,2.984061665235554,1.772462789710784,0.8929060455009591,0.6406883961470791,0.8406087321491169,-0.04982029795295839,0.1181206929541041,0.07910876216383445,0.08820263732100697,0.124516600885598,4.146665963507939
12.64,2.974821924865995,1.790809600887187,0.9054573191367061,0.6548223003607181,0.8606019070759892,-0.06568552492863594,0.1111175665257531,0.07774850668145517,0.08845478431976561,0.1253798914865785,4.2116911274606
12.8,2.963034925928921,1.807995356552409,0.917778851979972,0.6689890789663812,0.8807248139698002,-0.08164800304744912,0.1036119949760193,0.07623734385213199,0.08861180631392263,0.1261369918753839,4.275488101468562
12.96,2.94868983867859,1.823940638192685,0.9298462330607959,0.6831731266078075,0.9009599057969829,-0.09762738995741688,0.09561339091872778,0.07457185942399969,0.08866918285799585,0.1267810630187562,4.337919903658271
13.12,2.931791958545252,1.838567308924044,0.9416344040073328,0.6973580719756901,0.9212885069197648,-0.1135433536503614,0.08713692593129219,0.07274908109051337,0.08862230659405734,0.1273052777581167,4.398848291826832
13.28,2.912356130751216,1.851800586737302,0.9531181052147664,0.711526911648089,0.9416909785228278,-0.1293170027684045,0.07820049693028142,0.07076663932292693,0.08846679305888239,0.1277028600516927,4.458136582122985
13.44,2.89041350371664,1.863568606725013,0.9642716543078071,0.7256618120564582,0.9621464880510743,-0.1448722654836173,0.0688276171240132,0.06862262482260029,0.08819842958469748,0.1279670084408737,4.515648561140352
13.6,2.866004069278991,1.873803539194731,0.9750690981025069,0.7397443629944079,0.9826331742202071,-0.1601370473517366,0.05904436184594242,0.06631586638790932,0.08781279889511917,0.1280911632031059,4.571250174511852
13.76,2.839180953881069,1.88244224456786,0.9854843373086304,0.7537554781973992,1.003128081808029,-0.1750443441472837,0.04888096882714632,0.06384581563523062,0.0873055619473645,0.1280689022246206,4.624810141881919
13.92,2.810007172586457,1.889426560769525,0.9954912437323038,0.7676754005925426,1.023607244212866,-0.1895330462943248,0.03837071822009186,0.06121237501649279,0.08667262140951337,0.1278938436491055,4.676200449307236
14.08,2.778553218930346,1.894703793267869,1.005063734354931,0.7814837453484369,1.044045726546273,-0.203548499339968,0.02754901444099001,0.05841591873594609,0.08591007750677959,0.1275596716518752,4.72529699951751
14.24,2.744899410982558,1.898227312842482,1.01417579377388,0.7951595080827314,1.064417551187805,-0.21704289036818,0.01645419728045838,0.05545742720768532,0.08501406975881176,0.1270602488130428,4.771980165886899
14.4,2.709131060534031,1.899956361620673,1.022801598506309,0.8086810317239643,1.084695822135079,-0.2299753480825601,0.00512597739357834,0.05233813211862692,0.08398110119324231,0.126389391499929,4.816134813986025
14.56,2.67134077081205,1.89985705598808,1.030915550415839,0.822026093965825,1.104852646593379,-0.2423119114986845,-0.006393976205393503,0.04905989788964105,0.08280766711112675,0.1255411379636751,4.857651346963122
14.72,2.631626055278587,1.897901858718242,1.038492292674566,0.8351718861728382,1.124859164395674,-0.2540252657442409,-0.01806260926796499,0.04562493386702382,0.08149030374157484,0.1245096700140158,4.89642520196132
