"time","M","N","V","der(M)","der(N)","der(V)","Minf","Ninf","lambdaM","lambdaN"
0,0.00127101,6.1441746e-06,-50,1.717138257443399e-08,2.222221486673164e-15,2.5380811466032,0.001271016263081348,6.144174602207286e-06,2.741682826653796,1.006766199577777
0.2,0.00129057654679766,6.203253797556931e-06,-49.49738881753554,0.0001846745983441433,5.799647162252856e-07,2.488275573356364,0.001358992369016876,6.793905773239128e-06,2.699296629841202,0.9819059955829866
0.4,0.001339241108801852,6.369902382039409e-06,-49.00454449371842,0.0002975351705213364,1.080562638516685e-06,2.440311556047882,0.001451160815234498,7.49768391494765e-06,2.658469897795838,0.9581311690130345
0.6,0.001406617162942279,6.63113087262061e-06,-48.52115293148459,0.0003693084084776415,1.522426712803028e-06,2.393840802084778,0.001547621754840744,8.258737351996004e-06,2.619123274677281,0.9353776432416702
0.8,0.001485781737824246,6.976243221811875e-06,-48.04692882065736,0.0004199312138451415,1.922308677709018e-06,2.34862470671667,0.00164847113173644,9.080377016690289e-06,2.581183713007044,0.9135867131586549
1,0.001573409229798639,7.397783325030797e-06,-47.58162668398474,0.0004590115473219429,2.292624098997011e-06,2.304537588605814,0.00175379682368737,9.96595969060543e-06,2.544584898699167,0.8927050843270387
1.2,0.001668172384088359,7.891174634762286e-06,-47.12503402397107,0.0004905758206018115,2.642224969717725e-06,2.261517182009964,0.001863678070224473,1.091887381210466e-05,2.509266253567001,0.8726841125732299
1.4,0.001769112439911984,8.453460149163524e-06,-46.67694864720965,0.0005175011717221997,2.977875592413725e-06,2.21951360342692,0.001978189391150076,1.194256472381028e-05,2.475170833789719,0.8534784580697791
1.6,0.001875216299886071,9.082073288511763e-06,-46.23716742026674,0.0005426347302015207,3.305510938367197e-06,2.178475679710992,0.002097403218838279,1.304055390888292e-05,2.442244272347293,0.8350453760860552
1.8,0.001986326830381524,9.775905957201901e-06,-45.80550130034974,0.0005665946127246492,3.629414586070644e-06,2.138378996627408,0.002221385829920985,1.421639791915341e-05,2.410435736707579,0.8173451539084839
2,0.002102086175698355,1.053426387105565e-05,-45.38176097575871,0.0005904379789089151,3.953243253083811e-06,2.099193361554667,0.002350200981423689,1.547371671772879e-05,2.379696677845727,0.800340316184297
2.2,0.002222500058330494,1.135741085631223e-05,-44.96576600111491,0.0006143019710647869,4.279639389030833e-06,2.060900155157772,0.002483907226452975,1.68161635751285e-05,2.349981354669507,0.7839958337513541
2.4,0.002347683396330544,1.224623719220782e-05,-44.55734148464015,0.000638053116108094,4.610586070647228e-06,2.023484491815859,0.002622558612301762,1.824742571643334e-05,2.321246438510864,0.7682788254418732
2.6,0.002477630048115882,1.320183879550351e-05,-44.15631368544634,0.0006618349503499404,4.947794130086434e-06,1.986928097754927,0.002766206116754544,1.977123392893354e-05,2.293450574304729,0.7531582481480421
2.8,0.002612364573315712,1.422564874964165e-05,-43.76251292933702,0.0006857056767962105,5.292621093480607e-06,1.951214013973134,0.00291489675813883,2.139134884082683e-05,2.266554473194728,0.7386048852353274
3,0.002751907268558409,1.531931660996311e-05,-43.37577248251978,0.0007097224915248294,5.646191287730576e-06,1.916325468349608,0.003068674028986418,2.31115605634491e-05,2.240520724352094,0.7245911859836804
3.2,0.002896278988446516,1.648466725220688e-05,-42.99592873527645,0.0007339310440086092,6.009443429880011e-06,1.882246033041819,0.003227577910955126,2.493568412392788e-05,2.215313706580301,0.7110911646607829
3.4,0.003045520718593153,1.772366192861911e-05,-42.62282139385292,0.0007583232383331046,6.383171427939345e-06,1.84896020134186,0.003391644872800526,2.686755463632284e-05,2.190899505611422,0.6980803069311521
3.6,0.003199672495998778,1.903844992375835e-05,-42.25629325892156,0.0007828862308913752,6.768000074916367e-06,1.816452756808221,0.003560908045462718,2.891102455121475e-05,2.167245809702693,0.6855354687412576
3.8,0.003358746541617476,2.043129217701795e-05,-41.89618989357354,0.0008076608338563191,7.164450438411476e-06,1.784707977909873,0.003735397486458569,3.106996226237557e-05,2.144321804893031,0.6734347790587246
4,0.003522780335728177,2.190463938386933e-05,-41.54236025208006,0.0008326257052154312,7.572893027119599e-06,1.753711212147164,0.003915139996541639,3.334824538209213e-05,2.122098136921582,0.6617575813336873
4.2,0.003691808601063849,2.346093086790967e-05,-41.19465611950749,0.0008577601699447361,7.993691556252311e-06,1.723448021055437,0.004100159497770484,3.574976099496308e-05,2.100546801446023,0.6504843401370238
4.4,0.003865870638281554,2.510259594635157e-05,-40.85293218646082,0.000883029108468237,8.427200935662043e-06,1.693904394790644,0.004290477132615711,3.827840279846395e-05,2.079641080038006,0.6395965750143772
4.6,0.004045002034986199,2.683234851867866e-05,-40.51704638014797,0.0009084005855644419,8.873579808028007e-06,1.665066546971631,0.00448611120125858,4.093806615462769e-05,2.059355495241537,0.6290768067987766
4.8,0.004229207832729945,2.865252875038117e-05,-40.18685780255591,0.0009339031318923671,9.333222380576341e-06,1.636919962902885,0.00468707853463679,4.373266316848312e-05,2.039665626132095,0.6189084342227674
5,0.004418515995171176,3.05658355033329e-05,-39.86222971261146,0.0009595117403739413,9.806279818428755e-06,1.609451196630625,0.004893392924751716,4.666609800479948e-05,2.020548231773399,0.6090757723692702
5.2,0.004612945245025455,3.257493718003761e-05,-39.54302783228126,0.000985216921534733,1.029291900537699e-05,1.582646798989179,0.005105066236721967,4.974227862253322e-05,2.001981094401904,0.599563947618479
5.4,0.004812510959850271,3.468254305948255e-05,-39.22912065707941,0.001011012227335605,1.07932774035636e-05,1.556493514587327,0.005322108379554991,5.296511345026511e-05,1.983942987626243,0.5903588594416241
5.6,0.00501722558934505,3.689140834624631e-05,-38.92037947804489,0.001036893532554279,1.130746178491792e-05,1.530978295975474,0.00554452743306838,5.633851037939452e-05,1.966413629872167,0.5814471362182386
5.8,0.005227125437023604,3.920441987194763e-05,-38.61667751071715,0.001062808250283446,1.183550650732187e-05,1.50608895729337,0.005772330448209462,5.986638651778176e-05,1.949373590627434,0.5728160687795975
6,0.005442219848414123,4.162443349730127e-05,-38.31789154769611,0.001088753601573149,1.237746107545823e-05,1.481812929797413,0.006005522391807239,6.355264984370113e-05,1.932804341721802,0.5644536190236169
6.2,0.00566251875199416,4.415436224320976e-05,-38.02390106292417,0.001114723098154327,1.293334449310442e-05,1.458137938188619,0.00624410688830751,6.740120808718109e-05,1.916688165650154,0.5563483571023231
6.4,0.005888033768174506,4.679717983951585e-05,-37.73458817561842,0.001140704879367935,1.350314572392012e-05,1.435052026694675,0.006488086377001101,7.14159693228078e-05,1.901008115936012,0.548489426463649
6.6,0.006118767943498682,4.955556450946842e-05,-37.44983512062711,0.001166705682629837,1.40870374722357e-05,1.412543024339576,0.006737464491188117,7.560088051189462e-05,1.885747846803058,0.5408664448887259
6.8,0.006354716373628511,5.243192979823099e-05,-37.16952448351275,0.001192749524755132,1.468535083731682e-05,1.390598586915908,0.006992246375447486,7.995993511228372e-05,1.870891599378893,0.5334694857029876
7,0.006595887471100674,5.542947701012449e-05,-36.89354722592075,0.00121882446498935,1.529795105354437e-05,1.3692075798513,0.007252431490486322,8.449704912544265e-05,1.856424594545615,0.5262892612032978
7.2,0.006842280839991513,5.855110033401263e-05,-36.62179433660427,0.001244938167916537,1.592489593841772e-05,1.348358638535842,0.007518021039070288,8.921618510376872e-05,1.8423325556386,0.5193168731796199
7.4,0.007093893825870658,6.179971096846819e-05,-36.3541593030432,0.001271101578186982,1.656624128958097e-05,1.328040594774504,0.007789015950801059,9.412131841851634e-05,1.828601813406889,0.5125438552269865
7.6,0.007350759231505844,6.517806549122183e-05,-36.09053316924673,0.001297269910456009,1.722217398381537e-05,1.308243004147604,0.008065422249704746,9.921653686401077e-05,1.815219029697937,0.5059620273542346
7.8,0.007612862890722394,6.868914095075873e-05,-35.83081533672514,0.001323473892704385,1.789272564938648e-05,1.288954987594615,0.008347240128191435,0.0001045058425400147,1.802171724801284,0.4995637469518915
8,0.007880204438601582,7.233585832309335e-05,-35.5749056012734,0.001349722521018058,1.857798489465488e-05,1.270166087203295,0.008634472033232365,0.0001099932981867835,1.789447844009197,0.4933416865804531
8.199999999999999,0.008152782966691535,7.612114778972399e-05,-35.32270603268618,0.001376026247699162,1.927804830316309e-05,1.251866063650983,0.008927120896585705,0.0001156829965358042,1.777035832258954,0.4872888632403251
8.4,0.008430617294013738,8.004800011533311e-05,-35.07411798345915,0.001402367634188373,1.999302854723708e-05,1.234045138551841,0.009225193866352732,0.0001215791358640805,1.764924467959363,0.4813985504318905
8.6,0.008713725862840742,8.411941949715819e-05,-34.82904504660205,0.00142873228364884,2.072305210416669e-05,1.216693747911608,0.009528699250110628,0.0001276859654542051,1.753102992031446,0.4756643348453182
8.800000000000001,0.009002103839252847,8.833836985870403e-05,-34.5873964246955,0.001455141269985851,2.146824655236812e-05,1.199802269414591,0.009837642222434551,0.0001340076993781025,1.741561248742061,0.4700801780601852
9,0.009295758192489198,9.270785712168708e-05,-34.34908176887781,0.001481599976492545,2.222875636123701e-05,1.183361444295619,0.01015203111549046,0.0001405486434621905,1.730289416719495,0.4646402800118165
9.199999999999999,0.009594697836749742,9.723092619916561e-05,-34.11401238461331,0.001508113431482809,2.300473443935996e-05,1.16736223223686,0.0104718761556587,0.0001473131741506206,1.719278052105316,0.4593390947957963
9.4,0.009898948999742517,0.0001019108863472811,-33.88209666837736,0.001534671233926754,2.379630087365694e-05,1.151795753200896,0.01079719611053537,0.0001543058862139568,1.7085178627206,0.4541712173720585
9.6,0.01020851594372851,0.0001067507352109555,-33.65325177058343,0.001561288048605391,2.460366477370145e-05,1.136653430546168,0.01112800229863387,0.0001615312560004911,1.698000237062894,0.4491316332721202
9.800000000000001,0.01052341214568864,0.0001117536160242235,-33.42739433739352,0.001587971104343242,2.542702596622921e-05,1.121926877794805,0.01146431118070146,0.000168993910595383,1.687716795587532,0.4442154981333826
10,0.01084365203124037,0.0001169226964031816,-33.20444296512983,0.001614728954966079,2.626660297533068e-05,1.107607927921128,0.01180614111922229,0.000176698563688571,1.677659492588881,0.4394181827580255
10.2,0.0111692564522808,0.0001222613875012217,-32.98431438477657,0.001641572387077432,2.712259487125314e-05,1.093688385143467,0.01215351851920149,0.0001846501611070805,1.667820433447339,0.4347351823679076
10.4,0.0115002444650607,0.000127773015057678,-32.76692918903142,0.001668514079625842,2.799525079005981e-05,1.080160394726045,0.01250646929091703,0.0001928536956603555,1.658192122427394,0.4301622314150794
10.6,0.01183663383282977,0.0001334608395081798,-32.55221148218381,0.001695568013614243,2.888486038044997e-05,1.06701642111034,0.012865019026022,0.0002013142111551569,1.648767431540908,0.4256952849849549
10.8,0.01217844528057734,0.0001393282262127372,-32.34008591643957,0.001722750193675536,2.979172481480642e-05,1.054249054984575,0.01322919778639603,0.0002100369180905171,1.639539457803401,0.4213304478366179
11,0.01252570448592432,0.0001453786457779816,-32.13047813700376,0.00175007457849548,3.07161549338044e-05,1.041851110324094,0.01359903961729453,0.000219027190442922,1.630501534279741,0.4170639769400155
11.2,0.01287845224294897,0.0001516158639688949,-31.92331270700426,0.001777543071494323,3.16584332573927e-05,1.029815675249782,0.01397458655913508,0.000228290673289,1.621647133244672,0.4128922332916904
11.4,0.01323671322962752,0.0001580433581264573,-31.71851948402246,0.001805178254096138,3.261895261900612e-05,1.018135948796549,0.01435587732298271,0.0002378330126418526,1.612970130844984,0.4088118042009108
11.6,0.01360052210296402,0.0001646648047568026,-31.51602829243519,0.001832995885510961,3.359810136007074e-05,1.006805376905584,0.014742956732816,0.0002476600918634442,1.604464568575315,0.4048193883214133
11.8,0.01396991669395965,0.0001714839523787882,-31.31577031274974,0.001861012287516881,3.459629678630028e-05,0.9958176158088257,0.0151358733897064,0.000257777983194929,1.59612470540767,0.4009118181072298
12,0.01434493815663693,0.0001785047115038464,-31.11767641391101,0.001889249535293965,3.561398440683647e-05,0.9851663620892648,0.01553468314456219,0.0002681930470901928,1.587944941536201,0.39708602210094
12.2,0.01472563118629734,0.0001857310110476816,-30.92167988147621,0.001917726876163841,3.665164824181572e-05,0.9748456402303777,0.01593944389012253,0.0002789118078508901,1.579919925141955,0.3933390730626775
12.4,0.01511204417465134,0.0001931668677116158,-30.72771513759607,0.001946464480947911,3.77098083901411e-05,0.9648496732598254,0.01635021808842674,0.0002899410270719716,1.572044491724767,0.3896681576919925
12.6,0.01550422937949341,0.0002008164062940156,-30.53571738451603,0.001975484536081032,3.878902378339615e-05,0.9551728491961302,0.01676707365907909,0.0003012877378790746,1.564313643428122,0.3860705653189972
12.8,0.01590224486459979,0.0002086839111329756,-30.34562346116293,0.00200480552411554,3.98898580063283e-05,0.9458098582220946,0.01719008224357793,0.000312959208429664,1.556722577586851,0.3825436996149916
13,0.01630615556851087,0.0002167738607701514,-30.15737212980856,0.002034439585809346,4.101286211682753e-05,0.9367557485416403,0.01761931849723908,0.000324962930641548,1.549266691361513,0.3790850791635343
13.2,0.01671602678089283,0.0002250907042329251,-29.97090147237833,0.002064411877602555,4.215872122770999e-05,0.928005489996688,0.01805486610373158,0.0003373067992678003,1.541941473025582,0.3756922856262968
13.4,0.01713193065774011,0.0002336390810482242,-29.78615125050963,0.002094742516599539,4.332812247002141e-05,0.9195543830958053,0.01849681264429515,0.0003499989825977989,1.534742591106111,0.3723630038614428
13.6,0.01755394466511653,0.0002424237665721971,-29.60306219288987,0.002125451617880093,4.452179516557033e-05,0.9113979445932434,0.01894525128015451,0.0003630479813244714,1.527665860930361,0.3690950051530255
13.8,0.01798214139515921,0.0002514497149372997,-29.42157507985709,0.002156578437157164,4.574052204859878e-05,0.9035315471682399,0.01940028318476489,0.0003764627137228804,1.520707204994508,0.3658861277862139
14,0.01841660929601178,0.0002607219921110618,-29.24163244399478,0.002188143539383765,4.698512682109679e-05,0.8959511331856816,0.01986201350520023,0.000390252412216574,1.513862714300761,0.3627343042879339
14.2,0.01885743894658046,0.0002702458314310832,-29.06317735506564,0.002220174517946322,4.825648719408924e-05,0.8886527306828009,0.02033055446047705,0.0004044267281944625,1.507128597182221,0.3596375367738593
14.4,0.01930472574063944,0.0002800266308104728,-28.88615359353493,0.002252701458171838,4.955553669704988e-05,0.8816325399757726,0.02080602509632418,0.0004189957412179535,1.500501182287124,0.3565938973901808
14.6,0.01975857178083214,0.0002900700734696846,-28.71050610203931,0.002285752470182931,5.088321413885414e-05,0.8748870263454031,0.02128855020399423,0.0004339699419066423,1.493976931686946,0.3536015334242365
14.8,0.02021908523052912,0.0003003820690214324,-28.5361806827998,0.002319356010594228,5.224049798426643e-05,0.8684128716320114,0.02177826121019322,0.0004493602749691128,1.487552425669044,0.350658659445884
15,0.02068637824919139,0.000310968576027906,-28.36312322223655,0.002353547406295839,5.362849621385775e-05,0.8622068421554727,0.02227529854779536,0.0004651782321318798,1.481224330989833,0.3477635419775493
15.2,0.02116056982178077,0.0003218358340760468,-28.19128054912064,0.00238836137063515,5.50483455783143e-05,0.8562659457942452,0.02277980947372188,0.0004814358035597488,1.474989429620278,0.3449145119287488
15.4,0.02164178554874079,0.0003329903120475945,-28.02060006492932,0.002423834093890105,5.650124644965516e-05,0.8505873875846145,0.02329194928314193,0.0004981455360160703,1.468844602120487,0.3421099562702294
15.6,0.02213016494376237,0.0003444388481257696,-27.85102872157008,0.002459997425619885,5.798845446601241e-05,0.8451686456778861,0.02381188468918272,0.0005153206664313958,1.462786788535336,0.3393482995499186
15.8,0.02262584562734875,0.0003561883645198192,-27.68251519975656,0.002496892883384209,5.951131708518662e-05,0.8400072973392805,0.02433978748091342,0.0005329749372387504,1.456813064102,0.3366280378080651
16,0.02312897569541052,0.0003682461008111389,-27.51500818426469,0.00253456126430085,6.107125363508117e-05,0.8351011504136,0.02487583993352127,0.0005511227969992039,1.450920574710486,0.3339477085274841
16.2,0.02363971081287488,0.0003806195661306732,-27.34845675525044,0.002573045613835505,6.266976754937271e-05,0.8304482088032004,0.02542023392782788,0.0005697793981516153,1.445106548871405,0.3313058955478164
16.4,0.02415822170426245,0.000393316744866016,-27.18281064446954,0.002612379587268606,6.430837741287788e-05,0.8260468847343672,0.02597317037247249,0.0005889606038788631,1.43936830447388,0.3287012316019337
16.6,0.02468468570815078,0.0004063458726332498,-27.01801983474476,0.002652601988660152,6.598871404288403e-05,0.8218957431578404,0.02653486078489864,0.0006086830705366864,1.433703232735553,0.3261323905176175
16.8,0.02521928500052653,0.0004197153920828836,-26.85403443426862,0.002693760328207117,6.771254784441251e-05,0.8179934426580615,0.02710552808151323,0.000628964306660651,1.428108792212512,0.3235980840380759
17,0.02576221388761289,0.0004334341532744209,-26.69080492467356,0.002735899602388843,6.948172352778092e-05,0.8143389415614239,0.02768540609068182,0.000649822688734647,1.422582515685661,0.3210970645002227
17.2,0.02631367588939176,0.0004475114060237627,-26.52828189006449,0.002779068324413487,7.129818335495922e-05,0.8109313932283413,0.02827474086874043,0.0006712775427432094,1.417121999362051,0.3186281195190468
17.4,0.02687388129958768,0.000461956986130424,-26.36641550119362,0.002823325202407862,7.316394057678729e-05,0.8077700245303984,0.02887379306252724,0.000693349269056176,1.411724884430905,0.3161900632626706
17.6,0.02744305533077043,0.0004767808408405452,-26.20515681830255,0.002868721492681383,7.508119104371432e-05,0.8048544852862424,0.02948283358405179,0.0007160592239736641,1.406388899414196,0.3137817552116443
17.8,0.02802143206665929,0.0004919934402794726,-26.04445665544871,0.00291531596302892,7.705223783051912e-05,0.8021845658590225,0.03010214819486362,0.0007394299292474704,1.401111820834902,0.3114020820125874
18,0.02860925645073742,0.0005076056872266637,-25.88426582557909,0.002963171487134913,7.907952405735392e-05,0.7997602723560207,0.03073203714576739,0.000763485105391204,1.395891480487145,0.30904996042512
18.2,0.02920678984682082,0.0005236293545994721,-25.72453533294037,0.003012346910560167,8.116550376634513e-05,0.7975819765104328,0.03137281493532862,0.0007882497102461583,1.390725770695206,0.3067243393577593
18.4,0.02981430184769496,0.0005400764202931412,-25.56521594356039,0.003062911567332636,8.331288198896283e-05,0.7956501726546206,0.03202481256491274,0.0008137500768003458,1.385612629459544,0.3044241928589483
18.6,0.03043207369478117,0.000556959333004865,-25.40625828083628,0.003114940743846317,8.552454299955747e-05,0.7939655665838234,0.03268837781048833,0.0008400139802111628,1.380550042949347,0.3021485209434661
18.8,0.03106040027564198,0.0005742911640275513,-25.24761285680576,0.003168513545678206,8.780351943270284e-05,0.7925291232585908,0.03336387574993044,0.0008670707179887494,1.375536045877355,0.2998963494709723
19,0.03169959629044586,0.0005920857285029427,-25.08922980623731,0.003223706875798982,9.015298742772188e-05,0.7913421872167163,0.0340516906044192,0.0008949512475332488,1.370568712592667,0.2976667258668714
