"time","A","A_im","E","G","R","der(A)","der(A_im)","der(E)","der(G)","der(R)","R0","mA","mG"
0,1,0,0,100000000,0,7.833333333333334,0,1000,-500083333.3333334,200,0.7996001999000499,0.5,5.0025
0.2,2.201826097936739,0,325.1784176351754,36822898.71143845,65.89337890269957,4.200089917121947,0,2120.531493527945,-183517151.1041556,435.3476560846314,0.7996001999000499,0.5,5.0025
0.4,2.732196964984424,0,800.4152185491129,13692240.12239444,165.3484576412434,1.319733881259131,0,2532.093160347146,-66887242.05144811,540.0925510801297,0.7996001999000499,0.5,5.0025
0.6,2.822158133581917,0,1308.180542942527,5312203.528613908,275.9044784159552,-0.2129105978012173,0,2495.112997846285,-23956661.60125642,554.5257848637364,0.7996001999000499,0.5,5.0025
0.8,2.710297427923752,0,1785.796153752719,2355294.419590494,384.1695504152876,-0.795938009236965,0,2263.848389485573,-8210503.133906614,523.4577175379225,0.7996001999000499,0.5,5.0025
1,2.532844483397549,0,2210.413922645383,1381145.612358775,484.1686827989888,-0.9340962462689102,0,1980.241002736203,-2488260.266176725,475.1048813397224,0.7996001999000499,0.5,5.0025
1.2,2.347561297974894,0,2578.395091890348,1121923.17728952,573.9690152316014,-0.9034975764786919,0,1702.962525002307,-455568.9562153835,422.8670542448417,0.7996001999000499,0.5,5.0025
1.4,2.174837600097204,0,2893.350596383053,1111721.087635646,653.433358061502,-0.8197970696455673,0,1451.499951001441,225376.9039407587,372.2902631805058,0.7996001999000499,0.5,5.0025
1.6,2.020246331228692,0,3161.002839582227,1180505.285006295,723.1365831485025,-0.7261868303418477,0,1229.995621333135,416596.0633593816,325.4411906933242,0.7996001999000499,0.5,5.0025
1.8,1.884016648179844,0,3387.265836147956,1267250.352476707,783.900560297388,-0.6374575181444857,0,1037.200189142855,435190.0954017369,282.934833195439,0.7996001999000499,0.5,5.0025
2,1.7646446571823,0,3577.605874651478,1350953.415912672,836.6017612468639,-0.5578981921472053,0,870.243188519431,397156.13923031,244.789740600068,0.7996001999000499,0.5,5.0025
2.2,1.660205878509182,0,3736.876014969641,1425184.396887155,882.0924608387339,-0.4880745041908686,0,725.9868747667715,344365.8275002027,210.7817969291539,0.7996001999000499,0.5,5.0025
2.4,1.568809358984328,0,3869.316558741587,1488713.110430203,921.1691590797219,-0.4273227530119992,0,601.4802192989315,291453.3919034163,180.5931025105646,0.7996001999000499,0.5,5.0025
2.6,1.488738319838662,0,3978.608215888219,1542076.881017366,954.5612089179577,-0.3746474861014382,0,494.0862658666069,243092.1771959197,153.8770659081265,0.7996001999000499,0.5,5.0025
2.8,1.418479665017347,0,4067.937253157407,1586329.515643462,982.9284426824701,-0.3290355372615633,0,401.4953517279957,200383.0572247915,130.2884026875769,0.7996001999000499,0.5,5.0025
3,1.356715479872474,0,4140.058801059996,1622599.543437575,1006.863041196742,-0.2895563055529788,0,321.7007796074752,163190.8897880595,109.4974454829954,0.7996001999000499,0.5,5.0025
3.2,1.302303392792137,0,4197.354187155096,1651941.167348593,1026.893409707771,-0.2553865507172679,0,252.9648460033629,131004.7663072944,91.19698371040249,0.7996001999000499,0.5,5.0025
3.4,1.254255009309651,0,4241.881234247962,1675296.100184418,1043.489024914914,-0.2258080207320873,0,193.7847007476598,103229.5086945081,75.10515822443546,0.7996001999000499,0.5,5.0025
3.6,1.211715838744026,0,4275.418036128134,1693489.115874133,1057.065609490153,-0.2001979909657139,0,142.8613297119925,79295.46770729497,60.96623340232043,0.7996001999000499,0.5,5.0025
3.8,1.173947341900063,0,4299.500953036782,1707236.354721176,1067.99031366202,-0.1780179840897902,0,99.07210364086745,58692.96266738698,48.5500934095366,0.7996001999000499,0.5,5.0025
4,1.14031127694849,0,4315.457243627723,1717158.219097144,1076.586712955558,-0.1588026620330008,0,61.44696604155934,40973.03268623166,37.65101011237243,0.7996001999000499,0.5,5.0025
4.2,1.110256028560005,0,4324.433557124912,1723791.215099379,1083.139527455369,-0.1421500314215009,0,29.14763927877721,25745.18205863982,28.08597867864063,0.7996001999000499,0.5,5.0025
4.4,1.083304452433737,0,4327.421208655114,1727599.353387824,1087.899033586921,-0.1277125645392142,0,1.449150269958864,12670.89797832258,19.69276669629357,0.7996001999000499,0.5,5.0025
4.6,1.05904425960108,0,4325.276232708346,1728983.187494873,1091.084976026789,-0.1151901852516297,0,-22.27479857600633,1458.543278418481,12.32815136053881,0.7996001999000499,0.5,5.0025
4.8,1.037118874396408,0,4318.738348972095,1728289.232471907,1092.890211625417,-0.104323429416193,0,-42.56571284661595,-8145.828205147758,5.865942857703885,0.7996001999000499,0.5,5.0025
5,1.017220147757079,0,4308.446198101276,1725816.692182207,1093.483897826388,-0.09488818423932482,0,-59.89140176824026,-16361.65302043408,0.1952675465948346,0.7996001999000499,0.5,5.0025
5.2,0.9990816499006517,0,4294.951330821435,1721823.924506615,1093.014396929702,-0.08669079198605389,0,-74.6561828047071,-23378.22153865919,-4.78115626285387,0.7996001999000499,0.5,5.0025
5.4,0.9824729729664419,0,4278.730094578987,1716534.018188889,1091.611844215856,-0.07956387692599581,0,-87.20955067830482,-29358.80225606076,-9.148579636003547,0.7996001999000499,0.5,5.0025
5.6,0.9671948400831025,0,4260.193835482351,1710139.662198575,1089.390411524286,-0.07336274811689658,0,-97.85361878748506,-34444.59633096308,-12.98163493753299,0.7996001999000499,0.5,5.0025
5.8,0.9530748979700383,0,4239.697683539872,1702807.288157606,1086.450300186272,-0.06796231885881987,0,-106.8495229149297,-38757.88906481676,-16.34560445794327,0.7996001999000499,0.5,5.0025
6,0.9399640814002441,0,4217.548152239876,1694680.589888004,1082.879492995119,-0.06325446105482307,0,-114.4229566597248,-42404.45679155923,-19.29755657382771,0.7996001999000499,0.5,5.0025
6.2,0.9277334625843555,0,4194.009726170598,1685883.566395314,1078.75529076877,-0.05914571569190769,0,-120.768968958294,-45475.61371281557,-21.88735952935787,0.7996001999000499,0.5,5.0025
6.4,0.916271499443701,0,4169.310611785271,1676523.21329103,1074.145667933361,-0.05555528638479651,0,-126.0561535026168,-48050.17378983088,-24.15858932008763,0.7996001999000499,0.5,5.0025
6.6,0.9054816808033532,0,4143.647656591323,1666691.8535475,1069.110447776231,-0.05241331669613597,0,-130.4302333444774,-50196.27158966474,-26.14932306743205,0.7996001999000499,0.5,5.0025
6.8,0.8952805003600727,0,4117.190582643961,1656469.138134041,1063.702327086484,-0.04965940962193804,0,-134.0171453009175,-51972.90314641502,-27.89283458109028,0.7996001999000499,0.5,5.0025
7,0.8855956946042056,0,4090.085672501183,1645923.747861779,1057.96777611093,-0.04724134922432011,0,-136.9257235210902,-53431.06723853294,-29.41820891282114,0.7996001999000499,0.5,5.0025
7.2,0.8763647206674767,0,4062.458952567164,1635114.868506059,1051.947821253474,-0.04511399539841365,0,-139.2500174743142,-54614.77774407808,-30.75087989683925,0.7996001999000499,0.5,5.0025
7.4,0.867533437552221,0,4034.418948872059,1624093.488815559,1045.678727561141,-0.04323832177277098,0,-141.0712996657936,-55562.04514154326,-31.91310095198835,0.7996001999000499,0.5,5.0025
7.6,0.8590549670504035,0,4006.059066947106,1612903.524488154,1039.192593039142,-0.04158058412507459,0,-142.4597996863729,-56305.73924732301,-32.92435581357344,0.7996001999000499,0.5,5.0025
7.8,0.8508887108588068,0,3977.459646120474,1601582.779000002,1032.517865942115,-0.04011160499486199,0,-143.4762006713117,-56874.28699728381,-33.80171614128133,0.7996001999000499,0.5,5.0025
8,0.8429995014540606,0,3948.689734558456,1590163.768607499,1025.679795157874,-0.03880615686478983,0,-144.1729321855533,-57292.2492858842,-34.56015285658356,0.7996001999000499,0.5,5.0025
8.199999999999999,0.8353568674041176,0,3919.808624641787,1578674.438360613,1018.700822518912,-0.03764242795614609,0,-144.5952887563292,-57580.8319387855,-35.21280729283387,0.7996001999000499,0.5,5.0025
8.4,0.8279343974613026,0,3890.867181298314,1567138.78569266,1011.600924601091,-0.03660155893377487,0,-144.7823978632759,-57758.34844069928,-35.7712272524094,0.7996001999000499,0.5,5.0025
8.6,0.8207091912063853,0,3861.908989252313,1555577.399956794,1004.397910213845,-0.03566724245839914,0,-144.7680561066931,-57840.6243686853,-36.24557206287321,0.7996001999000499,0.5,5.0025
8.800000000000001,0.8136613830512167,0,3832.971347098463,1544007.927855403,997.1076803100725,-0.03482537667152741,0,-144.581453723399,-57841.33746905532,-36.64479118766167,0.7996001999000499,0.5,5.0025
9,0.8067737305983327,0,3804.086126972665,1532445.474206069,989.7444547651137,-0.03406376591604771,0,-144.2478011448335,-57772.30307362881,-36.97677947281028,0.7996001999000499,0.5,5.0025
9.199999999999999,0.800031263385704,0,3775.280507964952,1520902.943631517,982.3209678101964,-0.03337186542279219,0,-143.7888636055342,-57643.71651492547,-37.24851032464633,0.7996001999000499,0.5,5.0025
9.4,0.7934209738843019,0,3746.577620928921,1509391.343580475,974.8486412302948,-0.03274055609582111,0,-143.2234313479283,-57464.37931374367,-37.46615329502444,0.7996001999000499,0.5,5.0025
9.6,0.7869315626085641,0,3717.997080180162,1497920.03413812,967.3377291742382,-0.03216195879836786,0,-142.5677074364763,-57241.88541305903,-37.63517173856266,0.7996001999000499,0.5,5.0025
9.800000000000001,0.7805532322940901,0,3689.555412730362,1486496.92842339,959.7974371345306,-0.03162928474821791,0,-141.8356208885004,-56982.76515996829,-37.76040237465719,0.7996001999000499,0.5,5.0025
10,0.7742774310736691,0,3661.266594156604,1475128.743885465,952.2360677525347,-0.03113664819640061,0,-141.0392174654819,-56692.67063441128,-37.84615323540919,0.7996001999000499,0.5,5.0025
10.2,0.7680966444276329,0,3633.142482850154,1463821.204090056,944.6611409096558,-0.03067891510286369,0,-140.1889762849057,-56376.51655265503,-37.89628354501247,0.7996001999000499,0.5,5.0025
10.4,0.762004225546388,0,3605.193173285802,1452579.205539104,937.0794935190821,-0.03025157921193627,0,-139.2940677750624,-56038.60821553878,-37.91426935921655,0.7996001999000499,0.5,5.0025
10.6,0.7559946328955909,0,3577.426498780623,1441406.583601369,929.497163998946,-0.0298509369588032,0,-138.361991799565,-55682.46508650761,-37.90312069811247,0.7996001999000499,0.5,5.0025
10.8,0.750062733301187,0,3549.849487237845,1430306.794286633,921.9197706689462,-0.02947357737294548,0,-137.3996385082743,-55311.31978014577,-37.86563905971218,0.7996001999000499,0.5,5.0025
11,0.744204243821207,0,3522.467436688124,1419282.482650215,914.3522847655873,-0.0291167059637738,0,-136.4126153508239,-54927.80797981657,-37.80425898547045,0.7996001999000499,0.5,5.0025
11.2,0.7384152122754343,0,3495.285000119758,1408335.988814316,906.7993189630167,-0.02877776494380857,0,-135.4060377545053,-54534.33007635269,-37.72124144044216,0.7996001999000499,0.5,5.0025
11.4,0.7326923492808097,0,3468.305491058375,1397469.025080742,899.2649549116519,-0.02845467632734056,0,-134.3840234837841,-54132.82480666321,-37.61855449947754,0.7996001999000499,0.5,5.0025
11.6,0.7270326416108696,0,3441.531690419653,1386683.052382324,891.7529614527424,-0.02814555925520545,0,-133.3502809940438,-53725.03869315423,-37.49801802383857,0.7996001999000499,0.5,5.0025
11.8,0.7214334743804895,0,3414.965590747179,1375979.160582281,884.2667340038029,-0.0278488197609813,0,-132.3079233063053,-53312.43878000695,-37.36126076849189,0.7996001999000499,0.5,5.0025
12,0.7158925345598549,0,3388.608597006561,1365358.16275086,876.8093552344557,-0.02756308025524257,0,-131.2596146917853,-52896.28264957666,-37.20975834236549,0.7996001999000499,0.5,5.0025
12.2,0.7104077263306314,0,3362.461702776463,1354820.677536173,869.383648388398,-0.02728711771473225,0,-130.2076993634843,-52477.67808827199,-37.04486646068122,0.7996001999000499,0.5,5.0025
12.4,0.7049772362627905,0,3336.525353648648,1344367.064694565,861.99214708463,-0.02701991176023277,0,-129.1541021493714,-52057.53378448728,-36.86779875802415,0.7996001999000499,0.5,5.0025
12.6,0.6995993644799242,0,3310.799798941332,1333997.590537864,854.6371963853537,-0.02676052090219561,0,-128.1005852554088,-51636.68352921586,-36.67969123619972,0.7996001999000499,0.5,5.0025
12.8,0.6942726714740465,0,3285.284784807876,1323712.284088003,847.320875920248,-0.02650819034378643,0,-127.0485247279227,-51215.78043003846,-36.48154957962706,0.7996001999000499,0.5,5.0025
13,0.6889957695202977,0,3259.979988971143,1313511.140242036,840.0451238425854,-0.02626219930326867,0,-125.9992277224879,-50795.44374855887,-36.2743283186357,0.7996001999000499,0.5,5.0025
13.2,0.6837674896374607,0,3234.884671718894,1303393.95726086,832.8116465493555,-0.02602198333955186,0,-124.9536782922627,-50376.1439671712,-36.05887016987987,0.7996001999000499,0.5,5.0025
13.4,0.6785866983139183,0,3209.99805783834,1293360.514823661,825.6220305503419,-0.025787000279272,0,-123.9128161456666,-49958.32961423695,-35.83597623620008,0.7996001999000499,0.5,5.0025
13.6,0.6734524207164747,0,3185.319079094962,1283410.453709281,818.4776734735367,-0.02555682059133074,0,-122.8773490572656,-49542.34042726457,-35.60636071195523,0.7996001999000499,0.5,5.0025
13.8,0.6683637220208403,0,3160.846621138534,1273543.391622162,811.3798615337992,-0.02533104044342971,0,-121.8479332637933,-49128.49294533674,-35.37069758022338,0.7996001999000499,0.5,5.0025
14,0.6633197669394774,0,3136.579399024912,1263758.86450777,804.3297355878628,-0.02510932551200168,0,-120.8250828167506,-48717.03590298351,-35.12959865389629,0.7996001999000499,0.5,5.0025
14.2,0.6583197720513376,0,3112.516056022616,1254056.37305378,797.3283261193641,-0.02489137607423608,0,-119.8092419543163,-48308.18523323629,-34.88363335146249,0.7996001999000499,0.5,5.0025
14.4,0.6533630106496759,0,3088.655153057455,1244435.377811172,790.376553452591,-0.02467693062116655,0,-118.8007776146877,-47902.12077212054,-34.63332775864848,0.7996001999000499,0.5,5.0025
14.6,0.6484488093002903,0,3064.995175432742,1234895.302279182,783.475233643626,-0.02446576342284418,0,-117.7999845578952,-47498.98825017083,-34.37916699852053,0.7996001999000499,0.5,5.0025
14.8,0.6435765261808045,0,3041.534577469152,1225435.553846537,776.6250965493471,-0.02425766870979768,0,-116.8071181864834,-47098.91476864275,-34.1216047791535,0.7996001999000499,0.5,5.0025
15,0.638745571984203,0,3018.271738493899,1216055.503369678,769.826775100897,-0.02405247602490029,0,-115.8223626392718,-46701.99466357846,-33.861056050255,0.7996001999000499,0.5,5.0025
15.2,0.6339553738293929,0,2995.205037580345,1206754.519959976,763.0808331190037,-0.0238500238709311,0,-114.8458855656933,-46308.31404547486,-33.59791224515348,0.7996001999000499,0.5,5.0025
15.4,0.6292054046727951,0,2972.332791852299,1197531.942222822,756.3877478634486,-0.02365018130796098,0,-113.8777932902796,-45917.93031756394,-33.33253031738883,0.7996001999000499,0.5,5.0025
15.6,0.6244951491858776,0,2949.653327047175,1188387.111351243,749.7479376980477,-0.02345282298392909,0,-112.9181825759161,-45530.89659645874,-33.06524747500129,0.7996001999000499,0.5,5.0025
15.8,0.6198241264409378,0,2927.164929967089,1179319.348705421,743.1617470858313,-0.0232578458475331,0,-111.9671060508346,-45147.24465407338,-32.79637235262388,0.7996001999000499,0.5,5.0025
16,0.6151918668714803,0,2904.865895858217,1170327.978198567,736.6294682854858,-0.023065152279867,0,-111.024607093074,-44767.00214169268,-32.52619572132642,0.7996001999000499,0.5,5.0025
16.2,0.6105979253613446,0,2882.754500897396,1161412.31334939,730.1513315851989,-0.02287465973827896,0,-110.0906998630045,-44390.18284823,-32.25498514284635,0.7996001999000499,0.5,5.0025
16.4,0.6060418679732781,0,2860.82902926931,1152571.669969397,723.7275200869254,-0.02268629108987452,0,-109.1653893440496,-44016.79601267725,-31.98299172546692,0.7996001999000499,0.5,5.0025
16.6,0.6015232801198194,0,2839.087755842047,1143805.358138177,717.3581634385598,-0.02249998061727371,0,-108.2486588406923,-43646.84083028045,-31.71044676460207,0.7996001999000499,0.5,5.0025
16.8,0.5970417607286918,0,2817.528957855388,1135112.687668392,711.0433455899098,-0.0223156697959826,0,-107.3404787351552,-43280.31041399669,-31.4375650533062,0.7996001999000499,0.5,5.0025
17,0.5925969176279356,0,2796.1509240813,1126492.972397267,704.7831113196769,-0.02213330395993762,0,-106.4408133923894,-42917.19494125713,-31.16454760300277,0.7996001999000499,0.5,5.0025
17.2,0.5881883690553661,0,2774.951951293495,1117945.528584362,698.5774666006358,-0.02195283343878157,0,-105.5496187680077,-42557.4806999322,-30.89158144007251,0.7996001999000499,0.5,5.0025
17.4,0.5838157414793803,0,2753.930348448966,1109469.676807568,692.4263824757961,-0.02177421201289059,0,-104.6668456328613,-42201.15120983403,-30.61884110927613,0.7996001999000499,0.5,5.0025
17.6,0.5794786682124878,0,2733.084439210047,1101064.743108886,686.3297981862911,-0.02159739594370808,0,-103.7924415900238,-41848.18791028298,-30.34648980894383,0.7996001999000499,0.5,5.0025
17.8,0.5751767855396055,0,2712.412569339129,1092730.062740354,680.2876276292394,-0.02142234113900976,0,-102.9263567951767,-41498.57410934567,-30.07468191635351,0.7996001999000499,0.5,5.0025
18,0.5709097327059418,0,2691.913106526109,1084464.979871925,674.2997606441356,-0.02124900321224588,0,-102.0685439255856,-41152.29386769794,-29.80356334601447,0.7996001999000499,0.5,5.0025
18.2,0.5666771524029567,0,2671.584438955265,1076268.847004906,668.3660642016335,-0.0210773378624125,0,-101.2189573358596,-40809.33193072863,-29.53327177347751,0.7996001999000499,0.5,5.0025
18.4,0.5624787633940734,0,2651.424825059778,1068140.954793416,662.4863017211428,-0.02090735400704108,0,-100.3774428708712,-40469.62315869424,-29.26390024215948,0.7996001999000499,0.5,5.0025
18.6,0.5583142059498741,0,2631.432712088716,1060080.680908072,656.6603099131689,-0.02073900082373548,0,-99.543972072305,-40133.16006782558,-28.99557604575205,0.7996001999000499,0.5,5.0025
18.8,0.5541831536169265,0,2611.606505088901,1052087.382118223,650.8878737274501,-0.02057224948876513,0,-98.71847265529891,-39799.91501934454,-28.7284044445309,0.7996001999000499,0.5,5.0025
19,0.550085284127828,0,2591.944626551878,1044160.422180994,645.1687609671842,-0.02040707194692087,0,-97.90087251014154,-39469.86043761857,-28.46248387478425,0.7996001999000499,0.5,5.0025
19.2,0.5460202910325352,0,2572.445492751669,1036299.160581453,639.5026983099417,-0.02024344940586653,0,-97.09108215538186,-39142.95980851352,-28.19789738509678,0.7996001999000499,0.5,5.0025
19.4,0.5419878668040496,0,2553.107547275403,1028502.96851571,633.8894085107838,-0.02008136007954464,0,-96.28902001480105,-38819.1805720171,-27.9347257545802,0.7996001999000499,0.5,5.0025
19.6,0.537987702751027,0,2533.929260856691,1020771.228822846,628.3286115576524,-0.01992077915438134,0,-95.49461246314559,-38498.49411504809,-27.6730478274973,0.7996001999000499,0.5,5.0025
19.8,0.534019497075811,0,2514.909114877701,1013103.328137693,622.8200083563373,-0.01976168468382283,0,-94.70778164361423,-38180.86951243319,-27.41293466242834,0.7996001999000499,0.5,5.0025
20,0.5300829553653059,0,2496.045600311909,1005498.656468676,617.3632776553328,-0.01960405792638822,0,-93.92844471267142,-37866.27352964692,-27.15444868413353,0.7996001999000499,0.5,5.0025
20.2,0.5261777945469425,0,2477.33720972723,997956.6034720901,611.9580654525794,-0.01944788620504792,0,-93.15650788486516,-37554.66797903087,-26.89764018394276,0.7996001999000499,0.5,5.0025
20.4,0.5223037217480601,0,2458.782478035874,990476.5775361799,606.6040457066593,-0.01929314780327715,0,-92.39189776090848,-37246.02368637919,-26.64256724909994,0.7996001999000499,0.5,5.0025
20.6,0.518460452409344,0,2440.379946998479,983057.98918796,601.3008695193028,-0.01913982495396016,0,-91.63453434027576,-36940.30847697426,-26.38927903601252,0.7996001999000499,0.5,5.0025
20.8,0.5146477048703884,0,2422.128175427971,975700.2558840701,596.0481811653302,-0.01898789999106115,0,-90.88433898660435,-36637.49073370267,-26.13782101508039,0.7996001999000499,0.5,5.0025
21,0.5108652062335383,0,2404.025728814721,968402.797131934,590.8455861796676,-0.01883735941085385,0,-90.14122597014205,-36337.53574085422,-25.88822570234262,0.7996001999000499,0.5,5.0025
